Ewe/V	<I>/mA	time/s	
-4.0625343E-001	1.450312972068787E+000	0.000000000000000E+000
-4.0687203E-001	1.358232778124510E+000	9.999999747378752E-003
-4.0786803E-001	1.245930336424850E+000	2.819999928760808E-002
-4.0885949E-001	1.157339790549763E+000	4.639999882783741E-002
-4.0987608E-001	1.096345015176823E+000	6.459999836806674E-002
-4.1088101E-001	1.031605748016750E+000	8.279999790829606E-002
-4.1192842E-001	9.910844492576572E-001	1.008999974510516E-001
-4.1287455E-001	9.547577421192388E-001	1.190999969912809E-001
-4.1390505E-001	8.853112826464553E-001	1.371999965340365E-001
-4.1484377E-001	8.523174308808326E-001	1.553999960742658E-001
-4.1588843E-001	8.286336535974073E-001	1.735999956144951E-001
-4.1686261E-001	7.767643842823437E-001	1.917999951547245E-001
-4.1786292E-001	7.557454464911704E-001	2.099999946949538E-001
-4.1887531E-001	7.421245384461628E-001	2.281999942351831E-001
-4.1991812E-001	7.109423353586619E-001	2.463999937754124E-001
-4.2086902E-001	6.646157656546414E-001	2.645999933156418E-001
-4.2184854E-001	6.350342075385877E-001	2.827999928558711E-001
-4.2284754E-001	6.088021847270007E-001	3.008999923986266E-001
-4.2384565E-001	6.056543021083451E-001	3.190999919388560E-001
-4.2482024E-001	5.713877436432355E-001	3.371999914816115E-001
-4.2580494E-001	5.468619236631742E-001	3.553999910218408E-001
-4.2682481E-001	5.686702091882876E-001	3.735999905620702E-001
-4.2782077E-001	5.340758148092419E-001	3.917999901022995E-001
-4.2885488E-001	5.093919865639371E-001	4.099999896425288E-001
-4.2981741E-001	4.927836818495628E-001	4.281999891827581E-001
-4.3085194E-001	4.757794708524634E-001	4.463999887229875E-001
-4.3186247E-001	4.505362219767777E-001	4.645999882632168E-001
-4.3283424E-001	4.616751935060444E-001	4.827999878034461E-001
-4.3471539E-001	4.386252673665858E-001	5.163999869546387E-001
-4.3656427E-001	4.265539534310481E-001	5.499999861058313E-001
-4.3760824E-001	4.201026749024859E-001	5.681999856460607E-001
-4.3859407E-001	4.228097847253993E-001	5.863999851862900E-001
-4.3954930E-001	4.123213973884461E-001	6.045999847265193E-001
-4.4057330E-001	4.233691565919591E-001	6.227999842667487E-001
-4.4158894E-001	4.291313123582619E-001	6.409999838069780E-001
-4.4257706E-001	4.226534471755139E-001	6.590999833497335E-001
-4.4356462E-001	4.095626424917578E-001	6.772999828899628E-001
-4.4458678E-001	4.074744925561662E-001	6.953999824327184E-001
-4.4553265E-001	4.073351292382565E-001	7.135999819729477E-001
-4.4658917E-001	3.971421743220676E-001	7.317999815131770E-001
-4.4757193E-001	3.950044838234610E-001	7.499999810534064E-001
-4.4859365E-001	3.836622789138686E-001	7.681999805936357E-001
-4.4958293E-001	3.847731541217563E-001	7.863999801338650E-001
-4.5058697E-001	3.716344767204696E-001	8.045999796740944E-001
-4.5156136E-001	3.637164763776917E-001	8.227999792143237E-001
-4.5257953E-001	3.562962168134844E-001	8.409999787545530E-001
-4.5354289E-001	3.482845970486985E-001	8.590999782973086E-001
-4.5458028E-001	3.522653854716526E-001	8.772999778375379E-001
-4.5551124E-001	3.490814264954596E-001	8.953999773802934E-001
-4.5652035E-001	3.261075871508203E-001	9.135999769205227E-001
-4.5756912E-001	3.223684267311295E-001	9.317999764607521E-001
-4.5860645E-001	3.221867068602537E-001	9.499999760009814E-001
-4.5957005E-001	3.238887103512980E-001	9.681999755412107E-001
-4.6059465E-001	3.199849431743700E-001	9.863999750814401E-001
-4.6160352E-001	3.178317831261323E-001	1.004599974621669E+000
-4.6259898E-001	3.094060753051924E-001	1.022799974161899E+000
-4.6355098E-001	3.132926112824563E-001	1.040999973702128E+000
-4.6459463E-001	3.126141211236453E-001	1.059099973244884E+000
-4.6552908E-001	3.058754679390505E-001	1.077299972785113E+000
-4.6654058E-001	2.869733938708814E-001	1.095399972327868E+000
-4.6755505E-001	2.858002593593172E-001	1.113599971868098E+000
-4.6857327E-001	2.736381159550163E-001	1.131799971408327E+000
-4.6953842E-001	2.583609163221654E-001	1.149999970948556E+000
-4.7050223E-001	2.506881067057989E-001	1.168199970488786E+000
-4.7153792E-001	2.591025238839641E-001	1.186399970029015E+000
-4.7255835E-001	2.630312057302842E-001	1.204599969569244E+000
-4.7354552E-001	2.694707793433492E-001	1.222799969109474E+000
-4.7454932E-001	2.765364317484669E-001	1.240999968649703E+000
-4.7555512E-001	2.719886283660422E-001	1.259099968192459E+000
-4.7653627E-001	2.714759046993693E-001	1.277299967732688E+000
-4.7752550E-001	2.731606203256316E-001	1.295399967275443E+000
-4.7856629E-001	2.724015327619114E-001	1.313599966815673E+000
-4.7954941E-001	2.749692703722184E-001	1.331799966355902E+000
-4.8056915E-001	2.655417992358626E-001	1.349999965896131E+000
-4.8154494E-001	2.572000458030175E-001	1.368199965436361E+000
-4.8254329E-001	2.570647891128165E-001	1.386399964976590E+000
-4.8358732E-001	2.547527432498500E-001	1.404599964516819E+000
-4.8454034E-001	2.496897817844888E-001	1.422799964057049E+000
-4.8554510E-001	2.444275927235851E-001	1.440999963597278E+000
-4.8655379E-001	2.385227715475828E-001	1.459099963140034E+000
-4.8755300E-001	2.342999407314452E-001	1.477299962680263E+000
-4.8857564E-001	2.383757648824876E-001	1.495399962223019E+000
-4.8957697E-001	2.449652771204267E-001	1.513599961763248E+000
-4.9057972E-001	2.434874376838621E-001	1.531799961303477E+000
-4.9155831E-001	2.455136597673293E-001	1.549999960843707E+000
-4.9257702E-001	2.528959817150837E-001	1.568199960383936E+000
-4.9357349E-001	2.383345322655064E-001	1.586399959924165E+000
-4.9458203E-001	2.311881362540060E-001	1.604599959464394E+000
-4.9557945E-001	2.298808581684151E-001	1.622799959004624E+000
-4.9655521E-001	2.280260621394010E-001	1.640999958544853E+000
-4.9758857E-001	2.301848995108393E-001	1.659099958087609E+000
-4.9856871E-001	2.315800510266408E-001	1.677299957627838E+000
-4.9957609E-001	2.264081077877345E-001	1.695399957170594E+000
-5.0051099E-001	2.211976023680509E-001	1.713599956710823E+000
-5.0158292E-001	2.229462318917421E-001	1.731799956251052E+000
-5.0250977E-001	2.269471221540984E-001	1.749999955791282E+000
-5.0354278E-001	2.286888658455237E-001	1.768199955331511E+000
-5.0457007E-001	2.304850016402580E-001	1.786399954871740E+000
-5.0559759E-001	2.342791791028542E-001	1.804599954411970E+000
-5.0652522E-001	2.353762279963116E-001	1.822799953952199E+000
-5.0753570E-001	2.208025491648786E-001	1.840999953492428E+000
-5.0858092E-001	2.157460041430390E-001	1.859099953035184E+000
-5.0955677E-001	2.082343068468262E-001	1.877299952575413E+000
-5.1055098E-001	1.990874492228265E-001	1.895399952118169E+000
-5.1154661E-001	1.979084102896880E-001	1.913599951658398E+000
-5.1261365E-001	1.998242010970086E-001	1.931799951198627E+000
-5.1361006E-001	1.949370632646612E-001	1.949999950738857E+000
-5.1457918E-001	1.936534544248589E-001	1.968199950279086E+000
-5.1555288E-001	1.964028957441855E-001	1.986399949819315E+000
-5.1660186E-001	2.017612631194197E-001	2.004599949359545E+000
-5.1757121E-001	2.010774599643792E-001	2.022799948899774E+000
-5.1855719E-001	1.994119383928528E-001	2.040999948440003E+000
-5.1957536E-001	1.991017142764897E-001	2.059099947982759E+000
-5.2058941E-001	1.981087019707272E-001	2.077299947522988E+000
-5.2158183E-001	1.904647008089992E-001	2.095399947065744E+000
-5.2259701E-001	1.928912488550596E-001	2.113599946605973E+000
-5.2354050E-001	1.911527014365872E-001	2.131799946146202E+000
-5.2460492E-001	1.899438818292010E-001	2.149999945686432E+000
-5.2558935E-001	1.889550152399417E-001	2.168199945226661E+000
-5.2661932E-001	1.759288654588844E-001	2.186399944766890E+000
-5.2760994E-001	1.744998574313685E-001	2.204599944307120E+000
-5.2861887E-001	1.657699200983462E-001	2.222799943847349E+000
-5.2962452E-001	1.622169437312819E-001	2.240999943387578E+000
-5.3057718E-001	1.600205041554386E-001	2.259099942930334E+000
-5.3160709E-001	1.510916400125915E-001	2.277299942470563E+000
-5.3260052E-001	1.455264035481734E-001	2.295399942013319E+000
-5.3356624E-001	1.495106823407348E-001	2.313599941553548E+000
-5.3454268E-001	1.507962635286702E-001	2.331799941093777E+000
-5.3558290E-001	1.550191379669015E-001	2.349999940634007E+000
-5.3661150E-001	1.489928072829528E-001	2.368199940174236E+000
-5.3759480E-001	1.426961204042754E-001	2.386399939714465E+000
-5.3858274E-001	1.466308261392775E-001	2.404599939254695E+000
-5.3957248E-001	1.518865287508362E-001	2.422799938794924E+000
-5.4058051E-001	1.499780784645002E-001	2.440999938335153E+000
-5.4159707E-001	1.523277542818291E-001	2.459099937877909E+000
-5.4257083E-001	1.551882080158884E-001	2.477299937418138E+000
-5.4356873E-001	1.520367364291242E-001	2.495399936960894E+000
-5.4458201E-001	1.461239535230914E-001	2.513599936501123E+000
-5.4558045E-001	1.483056135924263E-001	2.531799936041352E+000
-5.4656374E-001	1.485205924649513E-001	2.549999935581582E+000
-5.4760838E-001	1.483342736539224E-001	2.568199935121811E+000
-5.4858238E-001	1.484309730897998E-001	2.586399934662040E+000
-5.4954553E-001	1.480027860819886E-001	2.604599934202270E+000
-5.5063456E-001	1.517740089849497E-001	2.622799933742499E+000
-5.5161363E-001	1.551948883428764E-001	2.640999933282728E+000
-5.5259579E-001	1.478787005855988E-001	2.659099932825484E+000
-5.5359930E-001	1.496668331077851E-001	2.677299932365713E+000
-5.5453217E-001	1.509975720838668E-001	2.695399931908469E+000
-5.5555701E-001	1.503791560617658E-001	2.713599931448698E+000
-5.5656725E-001	1.477966663791093E-001	2.731799930988927E+000
-5.5756837E-001	1.464672198388497E-001	2.749999930529157E+000
-5.5853736E-001	1.497584391464817E-001	2.768199930069386E+000
-5.5957824E-001	1.469042272028720E-001	2.786399929609615E+000
-5.6055492E-001	1.496992982986454E-001	2.804599929149845E+000
-5.6156343E-001	1.497011873757517E-001	2.822799928690074E+000
-5.6258583E-001	1.531089293151502E-001	2.840999928230303E+000
-5.6354040E-001	1.557028911099481E-001	2.859099927773059E+000
-5.6461072E-001	1.562392772077636E-001	2.877299927313288E+000
-5.6559348E-001	1.595599348344504E-001	2.895399926856044E+000
-5.6656414E-001	1.543165441256058E-001	2.913599926396273E+000
-5.6760365E-001	1.372512488370394E-001	2.931799925936502E+000
-5.6859654E-001	1.348457451004015E-001	2.949999925476732E+000
-5.6956089E-001	1.314010161526008E-001	2.968199925016961E+000
-5.7055587E-001	1.264504048056200E-001	2.986399924557190E+000
-5.7158107E-001	1.239569575312867E-001	3.004599924097420E+000
-5.7261139E-001	1.248715148707740E-001	3.022799923637649E+000
-5.7356727E-001	1.225961123141690E-001	3.040999923177878E+000
-5.7459956E-001	1.195936689317163E-001	3.059099922720634E+000
-5.7553095E-001	1.167441187883482E-001	3.077299922260863E+000
-5.7655418E-001	1.094564351040258E-001	3.095399921803619E+000
-5.7759237E-001	1.083492147043437E-001	3.113599921343848E+000
-5.7856047E-001	1.117931678845754E-001	3.131799920884077E+000
-5.7954627E-001	1.133696283327370E-001	3.149999920424307E+000
-5.8056831E-001	1.112199594096350E-001	3.168199919964536E+000
-5.8160847E-001	1.110648531426969E-001	3.186399919504765E+000
-5.8255351E-001	1.090634488761881E-001	3.204599919044995E+000
-5.8356071E-001	1.067134556953981E-001	3.222799918585224E+000
-5.8458716E-001	1.090219010138979E-001	3.240999918125453E+000
-5.8558869E-001	1.139536725233579E-001	3.259099917668209E+000
-5.8657837E-001	1.117961109802704E-001	3.277299917208438E+000
-5.8755273E-001	1.098087226069053E-001	3.295399916751194E+000
-5.8855546E-001	1.057194147594047E-001	3.313599916291423E+000
-5.8955652E-001	1.067794280351008E-001	3.331799915831652E+000
-5.9059525E-001	1.106486956455470E-001	3.349999915371882E+000
-5.9157002E-001	1.120588660978419E-001	3.368199914912111E+000
-5.9254503E-001	1.099840452102376E-001	3.386399914452340E+000
-5.9360313E-001	1.068406563334556E-001	3.404599913992570E+000
-5.9455836E-001	1.084655836116664E-001	3.422799913532799E+000
-5.9557164E-001	1.093467148546152E-001	3.440999913073028E+000
-5.9656292E-001	1.103613055454864E-001	3.459099912615784E+000
-5.9753138E-001	1.107770914292356E-001	3.477299912156013E+000
-5.9854239E-001	1.105536956516116E-001	3.495399911698769E+000
-5.9957284E-001	1.125775823253203E-001	3.513599911238998E+000
-6.0054767E-001	1.107846239979220E-001	3.531799910779228E+000
-6.0153371E-001	1.111186717131474E-001	3.549999910319457E+000
-6.0251898E-001	1.101045787800101E-001	3.568199909859686E+000
-6.0353988E-001	1.147261973018991E-001	3.586399909399915E+000
-6.0457999E-001	1.199520825581603E-001	3.604599908940145E+000
-6.0556293E-001	1.165362750549194E-001	3.622799908480374E+000
-6.0658842E-001	1.154480842368044E-001	3.640999908020603E+000
-6.0753518E-001	1.154469921854382E-001	3.659099907563359E+000
-6.0856301E-001	1.150380532153783E-001	3.677299907103588E+000
-6.0960257E-001	1.092020701605649E-001	3.695399906646344E+000
-6.1055434E-001	1.072736300982355E-001	3.713599906186573E+000
-6.1155581E-001	1.105688303555701E-001	3.731799905726803E+000
-6.1256421E-001	1.130468572154864E-001	3.749999905267032E+000
-6.1356014E-001	1.106557646059294E-001	3.768199904807261E+000
-6.1458951E-001	1.080702553562841E-001	3.786399904347491E+000
-6.1559844E-001	1.046337558161016E-001	3.804599903887720E+000
-6.1655986E-001	1.077799510792832E-001	3.822799903427949E+000
-6.1757869E-001	1.077520380813131E-001	3.840999902968179E+000
-6.1858052E-001	1.053172949837838E-001	3.859199902508408E+000
-6.1959779E-001	1.065790228672141E-001	3.877299902051163E+000
-6.2059379E-001	1.072446864471992E-001	3.895499901591393E+000
-6.2156713E-001	1.125740414772113E-001	3.913599901134148E+000
-6.2252915E-001	1.101410454488362E-001	3.931799900674378E+000
-6.2354952E-001	1.114512289005398E-001	3.949999900214607E+000
-6.2454146E-001	1.118403325385480E-001	3.968199899754836E+000
-6.2557882E-001	1.143193955794428E-001	3.986399899295066E+000
-6.2659377E-001	1.140215780818836E-001	4.004599898835295E+000
-6.2757695E-001	1.102682938472734E-001	4.022799898375524E+000
-6.2856567E-001	1.100018818734962E-001	4.040999897915754E+000
-6.2958062E-001	1.082570024342958E-001	4.059199897455983E+000
-6.3056356E-001	1.068487963409244E-001	4.077299896998738E+000
-6.3157123E-001	1.052657244770134E-001	4.095499896538968E+000
-6.3253862E-001	1.050902836697699E-001	4.113599896081723E+000
-6.3353223E-001	1.024496319553267E-001	4.131799895621953E+000
-6.3454443E-001	1.012589713814103E-001	4.149999895162182E+000
-6.3557404E-001	1.009380117197884E-001	4.168199894702411E+000
-6.3652319E-001	9.894053985779272E-002	4.186399894242641E+000
-6.3748205E-001	9.962023716226892E-002	4.204599893782870E+000
-6.3853520E-001	9.910092274346094E-002	4.222799893323099E+000
-6.3953006E-001	9.678278908093788E-002	4.240999892863329E+000
-6.4053619E-001	9.602608519220140E-002	4.259199892403558E+000
-6.4153361E-001	9.926284353369508E-002	4.277299891946313E+000
-6.4252865E-001	9.946608800055845E-002	4.295499891486543E+000
-6.4355034E-001	9.907418381786226E-002	4.313599891029298E+000
-6.4451605E-001	1.013344136810658E-001	4.331799890569528E+000
-6.4557570E-001	1.039392773132974E-001	4.349999890109757E+000
-6.4656830E-001	1.056252515485805E-001	4.368199889649986E+000
-6.4757854E-001	1.035720605624657E-001	4.386399889190216E+000
-6.4853227E-001	1.001417504416259E-001	4.404599888730445E+000
-6.4956903E-001	1.037821329863196E-001	4.422799888270674E+000
-6.5056610E-001	1.058483405774117E-001	4.440999887810904E+000
-6.5158063E-001	1.072350736131052E-001	4.459199887351133E+000
-6.5253973E-001	1.055721645430303E-001	4.477299886893888E+000
-6.5358359E-001	1.036524445603222E-001	4.495499886434118E+000
-6.5461105E-001	9.779073255954363E-002	4.513599885976873E+000
-6.5557736E-001	1.000919128311005E-001	4.531799885517103E+000
-6.5660250E-001	9.934958692770668E-002	4.549999885057332E+000
-6.5755957E-001	9.933967115726675E-002	4.568199884597561E+000
-6.5856588E-001	1.003602925858396E-001	4.586399884137791E+000
-6.5957409E-001	9.969517292579777E-002	4.604599883678020E+000
-6.6056037E-001	1.000440497496504E-001	4.622799883218249E+000
-6.6155440E-001	9.819307354585571E-002	4.640999882758479E+000
-6.6250014E-001	9.673628269087114E-002	4.659199882298708E+000
-6.6353953E-001	9.809592862492722E-002	4.677299881841464E+000
-6.6456312E-001	9.846529033851370E-002	4.695499881381693E+000
-6.6553849E-001	9.791904776981791E-002	4.713599880924448E+000
-6.6657007E-001	9.989862053757326E-002	4.731799880464678E+000
-6.6756231E-001	9.978065751322629E-002	4.749999880004907E+000
-6.6856390E-001	1.013881728195064E-001	4.768199879545136E+000
-6.6955882E-001	9.801432992155656E-002	4.786399879085366E+000
-6.7060554E-001	9.995595663445189E-002	4.804599878625595E+000
-6.7154706E-001	1.001924575715349E-001	4.822799878165824E+000
-6.7260230E-001	9.948083496845639E-002	4.840999877706054E+000
-6.7355043E-001	9.625990504523885E-002	4.859199877246283E+000
-6.7456895E-001	9.596163269569313E-002	4.877299876789039E+000
-6.7553204E-001	9.504462120031226E-002	4.895499876329268E+000
-6.7656577E-001	9.662423068458770E-002	4.913599875872023E+000
-6.7752558E-001	9.570544149226917E-002	4.931799875412253E+000
-6.7854398E-001	9.652149262383758E-002	4.949999874952482E+000
-6.7952144E-001	9.686665853156107E-002	4.968199874492711E+000
-6.8048322E-001	9.618387390524433E-002	4.986399874032941E+000
-6.8151379E-001	9.779552135832370E-002	5.004599873573170E+000
-6.8249047E-001	9.764330079779032E-002	5.022799873113399E+000
-6.8351454E-001	9.378356076890548E-002	5.040999872653629E+000
-6.8454868E-001	9.334383199627458E-002	5.059199872193858E+000
-6.8550819E-001	9.127319555723884E-002	5.077299871736614E+000
-6.8654025E-001	9.089444524286600E-002	5.095499871276843E+000
-6.8749613E-001	8.988203536605544E-002	5.113599870819598E+000
-6.8846941E-001	8.880207452003108E-002	5.131799870359828E+000
-6.8959707E-001	8.943498979305597E-002	5.149999869900057E+000
-6.9050449E-001	8.615697640187414E-002	5.168199869440286E+000
-6.9153178E-001	8.627960845918925E-002	5.186399868980516E+000
-6.9257432E-001	8.559586965285904E-002	5.204599868520745E+000
-6.9356376E-001	8.423060449720499E-002	5.222799868060974E+000
-6.9458717E-001	8.452331884281461E-002	5.240999867601204E+000
-6.9558465E-001	8.506559802463465E-002	5.259199867141433E+000
-6.9659072E-001	8.609201658925325E-002	5.277299866684189E+000
-6.9756979E-001	8.782943310848457E-002	5.295499866224418E+000
-6.9857490E-001	8.431617256577650E-002	5.313599865767173E+000
-6.9952571E-001	8.031387800271284E-002	5.331799865307403E+000
-7.0057511E-001	7.993129748686378E-002	5.349999864847632E+000
-7.0155030E-001	7.706586500323098E-002	5.368199864387861E+000
-7.0256835E-001	7.583895349426453E-002	5.386399863928091E+000
-7.0354342E-001	7.729820223672795E-002	5.404599863468320E+000
-7.0458853E-001	7.569696811828558E-002	5.422799863008549E+000
-7.0556790E-001	7.628767001187065E-002	5.440999862548779E+000
-7.0654684E-001	7.373347333717617E-002	5.459199862089008E+000
-7.0756072E-001	7.602673869603049E-002	5.477299861631764E+000
-7.0857054E-001	7.666189422641256E-002	5.495499861171993E+000
-7.0956093E-001	7.548966226877826E-002	5.513599860714749E+000
-7.1053851E-001	7.407148289210286E-002	5.531799860254978E+000
-7.1156788E-001	7.496221271178838E-002	5.549999859795207E+000
-7.1256745E-001	7.525584046393874E-002	5.568199859335436E+000
-7.1353352E-001	7.488097535877869E-002	5.586399858875666E+000
-7.1453100E-001	7.464962156472454E-002	5.604599858415895E+000
-7.1556652E-001	7.430353974213655E-002	5.622799857956124E+000
-7.1656054E-001	7.307579431103622E-002	5.640999857496354E+000
-7.1757090E-001	7.347212477996101E-002	5.659199857036583E+000
-7.1860397E-001	7.092374053289308E-002	5.677299856579339E+000
-7.1957660E-001	7.122238581787421E-002	5.695499856119568E+000
-7.2058159E-001	6.807334838426582E-002	5.713599855662324E+000
-7.2158283E-001	6.740128805097068E-002	5.731799855202553E+000
-7.2258961E-001	7.042542728709034E-002	5.749999854742782E+000
-7.2354221E-001	7.071633071542105E-002	5.768199854283012E+000
-7.2454715E-001	6.858200600694456E-002	5.786399853823241E+000
-7.2554696E-001	6.735014983824833E-002	5.804599853363470E+000
-7.2657907E-001	6.825342021368619E-002	5.822799852903700E+000
-7.2756737E-001	6.761889325116932E-002	5.840999852443929E+000
-7.2854483E-001	7.068280212541400E-002	5.859199851984158E+000
-7.2954321E-001	7.595907141351033E-002	5.877299851526914E+000
-7.3055094E-001	7.288861734574126E-002	5.895499851067143E+000
-7.3151100E-001	6.969880566154285E-002	5.913599850609899E+000
-7.3258787E-001	7.048601726575465E-002	5.931799850150128E+000
-7.3354548E-001	6.994720300881041E-002	5.949999849690357E+000
-7.3455775E-001	6.902613276246639E-002	5.968199849230587E+000
-7.3557657E-001	6.980842455466307E-002	5.986399848770816E+000
-7.3654938E-001	6.908568831035766E-002	6.004599848311045E+000
-7.3756611E-001	7.046606725155646E-002	6.022799847851275E+000
-7.3858941E-001	7.020994499524513E-002	6.040999847391504E+000
-7.3957080E-001	6.914230962936974E-002	6.059199846931733E+000
-7.4054193E-001	6.865332510543665E-002	6.077299846474489E+000
-7.4157512E-001	6.729699412352175E-002	6.095499846014718E+000
-7.4255002E-001	7.055470900916738E-002	6.113599845557474E+000
-7.4359572E-001	7.076426636109651E-002	6.131799845097703E+000
-7.4459130E-001	6.959802022533146E-002	6.149999844637932E+000
-7.4557400E-001	6.868408920836822E-002	6.168199844178162E+000
-7.4657625E-001	6.745524383448198E-002	6.186399843718391E+000
-7.4755985E-001	6.643292197017792E-002	6.204599843258620E+000
-7.4858826E-001	6.702707775800326E-002	6.222799842798850E+000
-7.4956805E-001	6.750454010850769E-002	6.240999842339079E+000
-7.5056887E-001	6.879027090077972E-002	6.259199841879308E+000
-7.5156826E-001	6.640906042540118E-002	6.277299841422064E+000
-7.5260454E-001	6.409567641712327E-002	6.295499840962293E+000
-7.5360096E-001	6.318180894226455E-002	6.313599840505049E+000
-7.5457257E-001	6.423142646856783E-002	6.331799840045278E+000
-7.5557601E-001	6.611933152151561E-002	6.349999839585507E+000
-7.5659055E-001	6.686592623023513E-002	6.368199839125737E+000
-7.5760376E-001	6.694722303243295E-002	6.386399838665966E+000
-7.5858694E-001	6.753083114816127E-002	6.404599838206195E+000
-7.5956088E-001	6.480122883406625E-002	6.422799837746425E+000
-7.6059508E-001	6.529913629779993E-002	6.440999837286654E+000
-7.6156402E-001	6.443298106343009E-002	6.459199836826883E+000
-7.6256800E-001	6.445682959639698E-002	6.477299836369639E+000
-7.6358736E-001	6.584314247176488E-002	6.495499835909868E+000
-7.6455355E-001	6.497390652132223E-002	6.513599835452624E+000
-7.6558840E-001	6.563866730586332E-002	6.531799834992853E+000
-7.6654941E-001	6.497933197874439E-002	6.549999834533082E+000
-7.6756543E-001	6.388390231465846E-002	6.568199834073312E+000
-7.6853061E-001	6.278178010578850E-002	6.586399833613541E+000
-7.6957077E-001	6.294322653046103E-002	6.604599833153770E+000
-7.7054185E-001	6.350987635797067E-002	6.622799832694000E+000
-7.7159470E-001	6.291857194780148E-002	6.640999832234229E+000
-7.7258492E-001	6.202912208391353E-002	6.659199831774458E+000
-7.7352315E-001	6.103804796922629E-002	6.677299831317214E+000
-7.7454042E-001	5.763164978477259E-002	6.695499830857443E+000
-7.7555758E-001	5.679486772193149E-002	6.713599830400199E+000
-7.7655214E-001	5.700016147102149E-002	6.731799829940428E+000
-7.7755201E-001	5.731701374908615E-002	6.749999829480657E+000
-7.7852923E-001	5.508570292121295E-002	6.768199829020887E+000
-7.7958494E-001	5.487403407247127E-002	6.786399828561116E+000
-7.8059930E-001	5.332293767828458E-002	6.804599828101345E+000
-7.8159851E-001	4.945639870626423E-002	6.822799827641575E+000
-7.8260940E-001	4.956569789991172E-002	6.840999827181804E+000
-7.8358543E-001	5.006129867340459E-002	6.859199826722033E+000
-7.8456849E-001	5.051076871250965E-002	6.877299826264789E+000
-7.8556025E-001	5.138886590792957E-002	6.895499825805018E+000
-7.8653532E-001	4.964304832023236E-002	6.913599825347774E+000
-7.8755981E-001	4.783844805816651E-002	6.931799824888003E+000
-7.8859347E-001	4.629749589182275E-002	6.949999824428232E+000
-7.8956431E-001	4.396901437884937E-002	6.968199823968462E+000
-7.9059249E-001	4.286702080067550E-002	6.986399823508691E+000
-7.9158062E-001	4.137393915827015E-002	7.004599823048920E+000
-7.9255390E-001	4.065242710426770E-002	7.022799822589150E+000
-7.9430389E-001	3.908007305540112E-002	7.055499821763078E+000
-7.9611224E-001	3.763355026234566E-002	7.088199820937007E+000
-7.9709435E-001	3.767025743060304E-002	7.106399820477236E+000
-7.9811662E-001	3.812211174532065E-002	7.124599820017465E+000
-7.9913086E-001	3.951092708853021E-002	7.142799819557695E+000
-8.0013126E-001	4.001120957801474E-002	7.160999819097924E+000
-8.0112052E-001	3.902163219967536E-002	7.179199818638153E+000
-8.0213320E-001	3.765345606119341E-002	7.197299818180909E+000
-8.0305284E-001	3.660990551723475E-002	7.215499817721138E+000
-8.0410576E-001	3.702641366782222E-002	7.233599817263894E+000
-8.0516702E-001	3.653196495199551E-002	7.251799816804123E+000
-8.0615389E-001	3.628361172698691E-002	7.269999816344352E+000
-8.0708385E-001	3.535364894054421E-002	7.288199815884582E+000
-8.0812281E-001	3.344436276671453E-002	7.306399815424811E+000
-8.0913055E-001	3.412809439802766E-002	7.324599814965040E+000
-8.1010425E-001	3.418097328309472E-002	7.342799814505270E+000
-8.1113851E-001	3.415297839276654E-002	7.360999814045499E+000
-8.1208843E-001	3.312279583045813E-002	7.379199813585728E+000
-8.1308031E-001	3.281319944440708E-002	7.397399813125958E+000
-8.1409711E-001	3.267586747088103E-002	7.415499812668713E+000
-8.1506979E-001	3.228220613357147E-002	7.433699812208943E+000
-8.1607223E-001	3.180963133721587E-002	7.451799811751698E+000
-8.1707543E-001	3.191432999191446E-002	7.469999811291927E+000
-8.1809068E-001	3.263327905754898E-002	7.488199810832157E+000
-8.1909752E-001	3.298245198980676E-002	7.506399810372386E+000
-8.2010663E-001	3.205187603399702E-002	7.524599809912615E+000
-8.2117766E-001	3.213043014821304E-002	7.542799809452845E+000
-8.2212698E-001	3.158232854684900E-002	7.560999808993074E+000
-8.2314533E-001	3.049984967610064E-002	7.579199808533303E+000
-8.2413185E-001	3.062260364219205E-002	7.597399808073533E+000
-8.2515836E-001	3.023314745169720E-002	7.615499807616288E+000
-8.2618195E-001	2.938709824452357E-002	7.633699807156518E+000
-8.2718098E-001	2.837461647080694E-002	7.651799806699273E+000
-8.2812399E-001	2.787482673515246E-002	7.669999806239503E+000
-8.2911766E-001	2.614619943062017E-002	7.688199805779732E+000
-8.3015382E-001	2.617971856174028E-002	7.706399805319961E+000
-8.3113170E-001	2.729935058046190E-002	7.724599804860190E+000
-8.3215046E-001	2.675400203954220E-002	7.742799804400420E+000
-8.3312798E-001	2.638101092761203E-002	7.760999803940649E+000
-8.3415544E-001	2.501871571521180E-002	7.779199803480878E+000
-8.3514541E-001	2.384031221068969E-002	7.797399803021108E+000
-8.3612305E-001	2.303777235764204E-002	7.815499802563863E+000
-8.3710957E-001	2.269807077842241E-002	7.833699802104093E+000
-8.3814442E-001	2.247357786591908E-002	7.851799801646848E+000
-8.3911943E-001	2.203132958086093E-002	7.869999801187078E+000
-8.4012842E-001	2.298487810220673E-002	7.888199800727307E+000
-8.4112900E-001	2.289161832219490E-002	7.906399800267536E+000
-8.4210312E-001	2.325168617514092E-002	7.924599799807766E+000
-8.4312522E-001	2.275446191360531E-002	7.942799799347995E+000
-8.4415531E-001	2.249344092206007E-002	7.960999798888224E+000
-8.4515417E-001	2.140219724707312E-002	7.979199798428454E+000
-8.4612495E-001	2.169015645312157E-002	7.997399797968683E+000
-8.4712815E-001	2.150274728522572E-002	8.015499797511438E+000
-8.4814650E-001	2.159704207025914E-002	8.033699797051668E+000
-8.4913528E-001	2.159231137313951E-002	8.051799796594423E+000
-8.5016298E-001	2.203103369932413E-002	8.069999796134653E+000
-8.5111755E-001	2.170346982055910E-002	8.088199795674882E+000
-8.5210639E-001	2.161869026199494E-002	8.106399795215111E+000
-8.5311711E-001	2.223424775513144E-002	8.124599794755341E+000
-8.5413080E-001	2.273965323735710E-002	8.142799794295570E+000
-8.5511917E-001	2.211995771504005E-002	8.160999793835799E+000
-8.5611194E-001	2.083585715509112E-002	8.179199793376029E+000
-8.5710680E-001	2.047485289186605E-002	8.197399792916258E+000
-8.5811728E-001	2.013279709865826E-002	8.215499792459013E+000
-8.5908252E-001	1.965354784603096E-002	8.233699791999243E+000
-8.6016816E-001	1.954149981107414E-002	8.251799791541998E+000
-8.6111343E-001	1.922617888478453E-002	8.269999791082228E+000
-8.6214650E-001	1.911438943338351E-002	8.288199790622457E+000
-8.6314613E-001	1.875647680376794E-002	8.306399790162686E+000
-8.6412650E-001	1.923535360433673E-002	8.324599789702916E+000
-8.6513728E-001	1.915701650922103E-002	8.342799789243145E+000
-8.6612773E-001	1.915542799198618E-002	8.360999788783374E+000
-8.6716110E-001	1.929433087636607E-002	8.379199788323604E+000
-8.6813146E-001	1.935509798754431E-002	8.397399787863833E+000
-8.6911601E-001	1.905588221838295E-002	8.415499787406588E+000
-8.7013650E-001	1.894779746631958E-002	8.433699786946818E+000
-8.7111020E-001	1.876940634080337E-002	8.451799786489573E+000
-8.7210572E-001	1.873052731034253E-002	8.469999786029803E+000
-8.7311971E-001	1.906854494122737E-002	8.488199785570032E+000
-8.7410754E-001	1.838249311294049E-002	8.506399785110261E+000
-8.7511951E-001	1.850810236171199E-002	8.524599784650491E+000
-8.7609768E-001	1.841212870580117E-002	8.542799784190720E+000
-8.7711424E-001	1.820644012598395E-002	8.560999783730949E+000
-8.7810564E-001	1.762547958464783E-002	8.579199783271179E+000
-8.7907743E-001	1.711316949584266E-002	8.597399782811408E+000
-8.8011789E-001	1.713541670027613E-002	8.615499782354163E+000
-8.8110012E-001	1.694150648804181E-002	8.633699781894393E+000
-8.8205874E-001	1.601560643104630E-002	8.651799781437148E+000
-8.8311607E-001	1.561173969470159E-002	8.669999780977378E+000
-8.8411820E-001	1.565351708275380E-002	8.688199780517607E+000
-8.8507158E-001	1.559098192828526E-002	8.706399780057836E+000
-8.8610190E-001	1.578973193053818E-002	8.724599779598066E+000
-8.8708454E-001	1.540730182151029E-002	8.742799779138295E+000
-8.8807505E-001	1.507935528554699E-002	8.760999778678524E+000
-8.8907200E-001	1.435797905024827E-002	8.779199778218754E+000
-8.9007956E-001	1.404252378486539E-002	8.797399777758983E+000
-8.9107096E-001	1.408248897541295E-002	8.815499777301739E+000
-8.9206272E-001	1.382053120012888E-002	8.833699776841968E+000
-8.9306402E-001	1.362294550987228E-002	8.851799776384723E+000
-8.9406800E-001	1.310232666373630E-002	8.869999775924953E+000
-8.9506596E-001	1.278481137017412E-002	8.888199775465182E+000
-8.9612502E-001	1.239044069945697E-002	8.906399775005411E+000
-8.9706576E-001	1.254389782701676E-002	8.924599774545641E+000
-8.9807761E-001	1.284355161539080E-002	8.942799774085870E+000
-8.9910954E-001	1.254290114682194E-002	8.960999773626099E+000
-9.0013325E-001	1.206931753929496E-002	8.979199773166329E+000
-9.0110660E-001	1.187538480717640E-002	8.997399772706558E+000
-9.0212798E-001	1.178195395608961E-002	9.015499772249314E+000
-9.0308052E-001	1.144531189670991E-002	9.033699771789543E+000
-9.0413111E-001	1.109563059410618E-002	9.051799771332298E+000
-9.0506566E-001	1.060203121614459E-002	9.069999770872528E+000
-9.0608805E-001	9.992130720887116E-003	9.088199770412757E+000
-9.0710533E-001	9.677796505346184E-003	9.106399769952986E+000
-9.0810436E-001	9.933777796260729E-003	9.124599769493216E+000
-9.0909868E-001	9.771856563286462E-003	9.142799769033445E+000
-9.1010356E-001	9.497010776497672E-003	9.160999768573674E+000
-9.1111273E-001	9.055156449619767E-003	9.179199768113904E+000
-9.1209596E-001	8.667362104638587E-003	9.197399767654133E+000
-9.1313088E-001	8.026050779638638E-003	9.215499767196889E+000
-9.1408449E-001	7.829018500863483E-003	9.233699766737118E+000
-9.1507488E-001	7.694310410425280E-003	9.251799766279873E+000
-9.1608989E-001	7.739923725851597E-003	9.269999765820103E+000
-9.1710341E-001	7.504792488499550E-003	9.288199765360332E+000
-9.1805381E-001	7.170295985057085E-003	9.306399764900561E+000
-9.1907406E-001	7.079832881998566E-003	9.324599764440791E+000
-9.2009240E-001	6.907003185809030E-003	9.342799763981020E+000
-9.2110622E-001	6.793162946925765E-003	9.360999763521249E+000
-9.2215919E-001	6.640295494097945E-003	9.379199763061479E+000
-9.2318189E-001	6.337017875300360E-003	9.397399762601708E+000
-9.2415082E-001	6.045717299760629E-003	9.415499762144464E+000
-9.2514372E-001	5.795614613057720E-003	9.433699761684693E+000
-9.2610496E-001	5.577365497571533E-003	9.451799761227448E+000
-9.2712879E-001	5.316701548606320E-003	9.469999760767678E+000
-9.2815572E-001	5.004107798045096E-003	9.488199760307907E+000
-9.2912537E-001	4.717958296302033E-003	9.506399759848136E+000
-9.3012661E-001	4.681457221141022E-003	9.524599759388366E+000
-9.3116719E-001	4.646242854753999E-003	9.542799758928595E+000
-9.3214840E-001	4.503923091965040E-003	9.560999758468824E+000
-9.3395984E-001	4.028401399601950E-003	9.593699757642753E+000
-9.3581241E-001	3.433145619987397E-003	9.626399756816681E+000
-9.3680328E-001	3.416420124418312E-003	9.644599756356911E+000
-9.3784118E-001	3.208890268832899E-003	9.662799755897140E+000
-9.3880033E-001	3.238274609017336E-003	9.680999755437369E+000
-9.3984258E-001	3.110347891800667E-003	9.699199754977599E+000
-9.4080508E-001	2.877621603657628E-003	9.717399754517828E+000
-9.4181085E-001	2.640345105770216E-003	9.735499754060584E+000
-9.4282603E-001	2.437269394162021E-003	9.753699753600813E+000
-9.4379115E-001	2.173833531915298E-003	9.771799753143569E+000
-9.4480532E-001	1.807451121900024E-003	9.789999752683798E+000
-9.4584078E-001	1.564264362299055E-003	9.808199752224027E+000
-9.4678873E-001	1.311620876833512E-003	9.826399751764257E+000
-9.4780129E-001	1.137909362527042E-003	9.844599751304486E+000
-9.4883460E-001	1.019588445921349E-003	9.862799750844715E+000
-9.4980937E-001	7.764135991881007E-004	9.880999750384944E+000
-9.5084888E-001	5.927495770398613E-004	9.899199749925174E+000
-9.5186645E-001	3.845466423617239E-004	9.917399749465403E+000
-9.5281488E-001	1.080981421946042E-004	9.935499749008159E+000
-9.5382893E-001	-1.452902827333766E-004	9.953699748548388E+000
-9.5484066E-001	-2.826567006378559E-004	9.971799748091144E+000
-9.5583773E-001	-3.100659790073593E-004	9.989999747631373E+000
-9.5682675E-001	-4.745335834352923E-004	1.000819974717160E+001
-9.5781952E-001	-6.084083044198634E-004	1.002639974671183E+001
-9.5884758E-001	-8.374580825768994E-004	1.004459974625206E+001
-9.5986295E-001	-1.055289340895729E-003	1.006279974579229E+001
-9.6077091E-001	-1.194316575812277E-003	1.008099974533252E+001
-9.6184564E-001	-1.410210792399568E-003	1.009919974487275E+001
-9.6283537E-001	-1.590934118522873E-003	1.011739974441298E+001
-9.6377325E-001	-1.709326079323129E-003	1.013549974395573E+001
-9.6484250E-001	-1.906813027771598E-003	1.015369974349596E+001
-9.6582264E-001	-2.063086025164676E-003	1.017179974303872E+001
-9.6679074E-001	-2.354816073766852E-003	1.018999974257895E+001
-9.6782887E-001	-2.545650328332748E-003	1.020819974211918E+001
-9.6877140E-001	-2.823908596181387E-003	1.022639974165941E+001
-9.6982121E-001	-3.030498196073109E-003	1.024459974119964E+001
-9.7084099E-001	-3.201007040994089E-003	1.026279974073987E+001
-9.7182423E-001	-3.343615116141237E-003	1.028099974028009E+001
-9.7284377E-001	-3.535228463850917E-003	1.029919973982032E+001
-9.7379899E-001	-3.733811597490644E-003	1.031739973936055E+001
-9.7483569E-001	-3.905374332617495E-003	1.033549973890331E+001
-9.7584116E-001	-4.094916179558469E-003	1.035369973844354E+001
-9.7681385E-001	-4.224095794930549E-003	1.037179973798629E+001
-9.7782660E-001	-4.408622882879049E-003	1.038999973752652E+001
-9.7880232E-001	-4.577657413117373E-003	1.040819973706675E+001
-9.7978497E-001	-4.797346702359442E-003	1.042639973660698E+001
-9.8080271E-001	-4.977999590127888E-003	1.044459973614721E+001
-9.8182207E-001	-5.151590851998733E-003	1.046279973568744E+001
-9.8282474E-001	-5.306005340158973E-003	1.048099973522767E+001
-9.8377454E-001	-5.475067008139760E-003	1.049919973476790E+001
-9.8481506E-001	-5.626213488650972E-003	1.051739973430813E+001
-9.8579818E-001	-5.746252017823639E-003	1.053549973385088E+001
-9.8679215E-001	-5.885014658162158E-003	1.055369973339111E+001
-9.8779708E-001	-5.996532828359644E-003	1.057179973293387E+001
-9.8875302E-001	-6.163109883931525E-003	1.058999973247410E+001
-9.8980284E-001	-6.325332912412000E-003	1.060819973201433E+001
-9.9075162E-001	-6.446493476013115E-003	1.062639973155456E+001
-9.9181020E-001	-6.569156988286813E-003	1.064459973109479E+001
-9.9274874E-001	-6.697230815774571E-003	1.066279973063502E+001
-9.9377120E-001	-6.818047269561943E-003	1.068099973017524E+001
-9.9481708E-001	-6.925211628070582E-003	1.069919972971547E+001
-9.9581748E-001	-7.030705868734284E-003	1.071739972925570E+001
-9.9679798E-001	-7.136242785225178E-003	1.073549972879846E+001
-9.9780673E-001	-7.233646298603451E-003	1.075369972833869E+001
-9.9879307E-001	-7.326630981750459E-003	1.077179972788144E+001
-9.9983793E-001	-7.428623628397961E-003	1.078999972742167E+001
-1.0008124E+000	-7.506617432883944E-003	1.080819972696190E+001
-1.0018247E+000	-7.594409334954581E-003	1.082639972650213E+001
-1.0028137E+000	-7.683426266335197E-003	1.084459972604236E+001
-1.0038122E+000	-7.765324417787031E-003	1.086279972558259E+001
-1.0047922E+000	-7.848932022401389E-003	1.088099972512282E+001
-1.0058161E+000	-7.932793325797790E-003	1.089919972466305E+001
-1.0067875E+000	-8.017589762862209E-003	1.091739972420328E+001
-1.0078152E+000	-8.108761863695663E-003	1.093559972374351E+001
-1.0088235E+000	-8.199620637758809E-003	1.095369972328626E+001
-1.0098174E+000	-8.312518508669348E-003	1.097189972282649E+001
-1.0108129E+000	-8.402328022646359E-003	1.098999972236925E+001
-1.0118284E+000	-8.516491432503853E-003	1.100819972190948E+001
-1.0127995E+000	-8.635005138891816E-003	1.102639972144971E+001
-1.0138174E+000	-8.745229782298098E-003	1.104459972098994E+001
-1.0148054E+000	-8.854861896188393E-003	1.106279972053017E+001
-1.0157945E+000	-9.014274837362578E-003	1.108099972007039E+001
-1.0168397E+000	-9.118138093333755E-003	1.109919971961062E+001
-1.0178149E+000	-9.257723910630428E-003	1.111739971915085E+001
-1.0188047E+000	-9.477117190083581E-003	1.113559971869108E+001
-1.0198349E+000	-9.586281445305656E-003	1.115369971823384E+001
-1.0207969E+000	-9.773358301134571E-003	1.117189971777407E+001
-1.0217748E+000	-9.931469092496231E-003	1.118999971731682E+001
-1.0227722E+000	-1.003796139152765E-002	1.120819971685705E+001
-1.0237800E+000	-1.015853187844451E-002	1.122639971639728E+001
-1.0247508E+000	-1.038516964916019E-002	1.124459971593751E+001
-1.0258051E+000	-1.049023281843914E-002	1.126279971547774E+001
-1.0267823E+000	-1.068763583231283E-002	1.128099971501797E+001
-1.0284506E+000	-1.084786575057997E-002	1.131369971419190E+001
-1.0302637E+000	-1.075548275672722E-002	1.134639971336583E+001
-1.0312475E+000	-1.096274274221778E-002	1.136459971290606E+001
-1.0322824E+000	-1.123685795418411E-002	1.138279971244629E+001
-1.0332516E+000	-1.153332625161542E-002	1.140099971198651E+001
-1.0342416E+000	-1.183531466749405E-002	1.141919971152674E+001
-1.0352783E+000	-1.200346899642640E-002	1.143739971106697E+001
-1.0363016E+000	-1.218912003152982E-002	1.145559971060720E+001
-1.0372647E+000	-1.234648430509416E-002	1.147369971014996E+001
-1.0382767E+000	-1.274972195010546E-002	1.149189970969019E+001
-1.0392678E+000	-1.304431558901117E-002	1.150999970923294E+001
-1.0402910E+000	-1.342608782479808E-002	1.152819970877317E+001
-1.0412817E+000	-1.363910772925012E-002	1.154639970831340E+001
-1.0423025E+000	-1.397086456659385E-002	1.156459970785363E+001
-1.0432937E+000	-1.487494483632715E-002	1.158279970739386E+001
-1.0442684E+000	-1.711200202940169E-002	1.160099970693409E+001
-1.0452753E+000	-1.822857303380193E-002	1.161919970647432E+001
-1.0462629E+000	-1.894355248844409E-002	1.163739970601455E+001
-1.0472463E+000	-1.987066469687636E-002	1.165559970555478E+001
-1.0482411E+000	-2.111524202139403E-002	1.167369970509753E+001
-1.0492945E+000	-2.295690568783432E-002	1.169189970463776E+001
-1.0502824E+000	-2.561824168291557E-002	1.170999970418052E+001
-1.0513055E+000	-2.765033642595299E-002	1.172819970372075E+001
-1.0522732E+000	-2.999306987465655E-002	1.174639970326098E+001
-1.0532624E+000	-3.257113870342609E-002	1.176459970280121E+001
-1.0543190E+000	-3.689706125239867E-002	1.178279970234144E+001
-1.0553367E+000	-4.073494797282862E-002	1.180099970188166E+001
-1.0562806E+000	-4.550631261564136E-002	1.181919970142189E+001
-1.0573186E+000	-5.208769546688252E-002	1.183739970096212E+001
-1.0583011E+000	-6.154652865228782E-002	1.185559970050235E+001
-1.0592918E+000	-7.267055494486585E-002	1.187369970004511E+001
-1.0603250E+000	-8.546497287044708E-002	1.189189969958534E+001
-1.0621105E+000	-1.234603403842112E-001	1.192459969875927E+001
-1.0639116E+000	-1.803377979327128E-001	1.195739969793067E+001
-1.0649359E+000	-2.222672735721374E-001	1.197559969747090E+001
-1.0659022E+000	-2.597978111517453E-001	1.199369969701365E+001
-1.0669194E+000	-3.084680240854247E-001	1.201189969655388E+001
-1.0679077E+000	-3.564441893454173E-001	1.202999969609664E+001
-1.0688890E+000	-4.174024238387437E-001	1.204819969563687E+001
-1.0699064E+000	-4.958062579287432E-001	1.206639969517710E+001
-1.0708848E+000	-5.777254039989548E-001	1.208459969471733E+001
-1.0718648E+000	-6.599365842869371E-001	1.210279969425756E+001
-1.0728995E+000	-7.469493401827396E-001	1.212099969379778E+001
-1.0739115E+000	-8.461523115316889E-001	1.213919969333801E+001
-1.0749365E+000	-9.367815169210436E-001	1.215739969287824E+001
-1.0759163E+000	-1.028033691140397E+000	1.217559969241847E+001
-1.0777094E+000	-1.194722867260198E+000	1.220919969156967E+001
-1.0796309E+000	-1.373918999113686E+000	1.224279969072086E+001
-1.0806221E+000	-1.470589437231240E+000	1.226099969026109E+001
-1.0816485E+000	-1.574403797485299E+000	1.227919968980132E+001
-1.0826118E+000	-1.679518569015513E+000	1.229739968934155E+001
-1.0836530E+000	-1.775853506630146E+000	1.231559968888178E+001
-1.0845976E+000	-1.875423934195696E+000	1.233369968842453E+001
-1.0856562E+000	-1.979932381838189E+000	1.235189968796476E+001
-1.0866059E+000	-2.082768831274848E+000	1.236999968750752E+001
-1.0876323E+000	-2.183410020685947E+000	1.238819968704775E+001
-1.0886257E+000	-2.283596929816945E+000	1.240639968658797E+001
-1.0896175E+000	-2.382821897462740E+000	1.242459968612820E+001
-1.0906225E+000	-2.483052164252577E+000	1.244279968566843E+001
-1.0916144E+000	-2.585662702707261E+000	1.246099968520866E+001
-1.0926259E+000	-2.690448466506673E+000	1.247919968474889E+001
-1.0936015E+000	-2.788519602650545E+000	1.249739968428912E+001
-1.0945883E+000	-2.885262616342153E+000	1.251559968382935E+001
-1.0956461E+000	-2.985180509081232E+000	1.253369968337211E+001
-1.0966029E+000	-3.085875759255362E+000	1.255189968291234E+001
-1.0976014E+000	-3.184406328364840E+000	1.256999968245509E+001
-1.0986052E+000	-3.282421761442258E+000	1.258819968199532E+001
-1.0995932E+000	-3.381745486152234E+000	1.260639968153555E+001
-1.1006087E+000	-3.478977057810241E+000	1.262459968107578E+001
-1.1016564E+000	-3.577138410526801E+000	1.264279968061601E+001
-1.1026514E+000	-3.674964196098642E+000	1.266099968015624E+001
-1.1036713E+000	-3.771192927803938E+000	1.267919967969647E+001
-1.1046256E+000	-3.866290270518952E+000	1.269739967923670E+001
-1.1056340E+000	-3.962174970565783E+000	1.271559967877693E+001
-1.1066246E+000	-4.057084573639762E+000	1.273369967831968E+001
-1.1076165E+000	-4.151882732585989E+000	1.275189967785991E+001
-1.1086427E+000	-4.246019780735782E+000	1.276999967740267E+001
-1.1096171E+000	-4.341879325387314E+000	1.278819967694290E+001
-1.1105964E+000	-4.437290806050697E+000	1.280639967648312E+001
-1.1115792E+000	-4.531370018531632E+000	1.282459967602335E+001
-1.1126226E+000	-4.626690967326489E+000	1.284279967556358E+001
-1.1136417E+000	-4.721757984833737E+000	1.286099967510381E+001
-1.1145495E+000	-4.813615827880259E+000	1.287919967464404E+001
-1.1156086E+000	-4.907411071876203E+000	1.289739967418427E+001
-1.1166687E+000	-5.001495484989576E+000	1.291559967372450E+001
-1.1175969E+000	-5.094202383616832E+000	1.293369967326726E+001
-1.1186491E+000	-5.188196877914436E+000	1.295189967280749E+001
-1.1196307E+000	-5.280375973862123E+000	1.296999967235024E+001
-1.1205958E+000	-5.370555900364371E+000	1.298819967189047E+001
-1.1215870E+000	-5.463015689301059E+000	1.300639967143070E+001
-1.1225816E+000	-5.555031479077357E+000	1.302459967097093E+001
-1.1236269E+000	-5.647950313676404E+000	1.304279967051116E+001
-1.1246158E+000	-5.738998837987054E+000	1.306099967005139E+001
-1.1256517E+000	-5.828385285451631E+000	1.307919966959162E+001
-1.1266793E+000	-5.921128049401958E+000	1.309739966913185E+001
-1.1276619E+000	-6.012176717563378E+000	1.311559966867208E+001
-1.1286774E+000	-6.102183033102818E+000	1.313369966821483E+001
-1.1296871E+000	-6.192406008493720E+000	1.315189966775506E+001
-1.1306595E+000	-6.282381567522517E+000	1.316999966729782E+001
-1.1316569E+000	-6.374094298336530E+000	1.318819966683805E+001
-1.1326689E+000	-6.463278026097427E+000	1.320639966637827E+001
-1.1336808E+000	-6.553324788318143E+000	1.322459966591850E+001
-1.1346525E+000	-6.644878111416233E+000	1.324279966545873E+001
-1.1356546E+000	-6.734308690813974E+000	1.326099966499896E+001
-1.1366618E+000	-6.823621735885356E+000	1.327919966453919E+001
-1.1376882E+000	-6.913151619510685E+000	1.329739966407942E+001
-1.1386738E+000	-7.001624015500596E+000	1.331559966361965E+001
-1.1396929E+000	-7.090320779493510E+000	1.333369966316241E+001
-1.1406412E+000	-7.179583673215916E+000	1.335189966270264E+001
-1.1416237E+000	-7.267487726251531E+000	1.336999966224539E+001
-1.1426666E+000	-7.355576715218589E+000	1.338819966178562E+001
-1.1436923E+000	-7.443723354234194E+000	1.340639966132585E+001
-1.1446517E+000	-7.532345959071691E+000	1.342459966086608E+001
-1.1456641E+000	-7.620712477386718E+000	1.344279966040631E+001
-1.1466235E+000	-7.709518669363916E+000	1.346099965994654E+001
-1.1476873E+000	-7.797620742404604E+000	1.347919965948677E+001
-1.1486423E+000	-7.884617700573138E+000	1.349739965902700E+001
-1.1496197E+000	-7.971766105694009E+000	1.351559965856723E+001
-1.1506609E+000	-8.059679816810430E+000	1.353369965810998E+001
-1.1516484E+000	-8.148554748959022E+000	1.355189965765021E+001
-1.1526796E+000	-8.236747483836467E+000	1.356999965719297E+001
-1.1536334E+000	-8.323856333043489E+000	1.358819965673320E+001
-1.1546474E+000	-8.410223391161452E+000	1.360639965627342E+001
-1.1556442E+000	-8.497570847320105E+000	1.362459965581365E+001
-1.1566144E+000	-8.586417336362146E+000	1.364279965535388E+001
-1.1576800E+000	-8.674333959545265E+000	1.366099965489411E+001
-1.1586465E+000	-8.760555445857136E+000	1.367919965443434E+001
-1.1596274E+000	-8.846769443372430E+000	1.369739965397457E+001
-1.1606419E+000	-8.933049212141718E+000	1.371559965351480E+001
-1.1616426E+000	-9.018966132292036E+000	1.373369965305756E+001
-1.1626269E+000	-9.106506261818197E+000	1.375189965259779E+001
-1.1636789E+000	-9.193327157453808E+000	1.376999965214054E+001
-1.1646596E+000	-9.279101410544499E+000	1.378819965168077E+001
-1.1656460E+000	-9.364646267491111E+000	1.380639965122100E+001
-1.1666592E+000	-9.452238663376846E+000	1.382459965076123E+001
-1.1676611E+000	-9.538931338052890E+000	1.384279965030146E+001
-1.1686862E+000	-9.625339330333063E+000	1.386099964984169E+001
-1.1696674E+000	-9.712094960307184E+000	1.387919964938192E+001
-1.1706269E+000	-9.796576232190546E+000	1.389739964892215E+001
-1.1716508E+000	-9.880972249115359E+000	1.391559964846238E+001
-1.1726763E+000	-9.967109405700029E+000	1.393369964800513E+001
-1.1736777E+000	-1.005356066811967E+001	1.395189964754536E+001
-1.1746593E+000	-1.013911636766139E+001	1.396999964708812E+001
-1.1756567E+000	-1.022446207055233E+001	1.398819964662835E+001
-1.1766626E+000	-1.030899787214472E+001	1.400639964616857E+001
-1.1776627E+000	-1.039474034084047E+001	1.402459964570880E+001
-1.1786363E+000	-1.049096752688656E+001	1.404279964524903E+001
-1.1796454E+000	-1.057763412180472E+001	1.406099964478926E+001
-1.1806632E+000	-1.066271852985389E+001	1.407919964432949E+001
-1.1816661E+000	-1.074662499445967E+001	1.409739964386972E+001
-1.1826869E+000	-1.083110395626326E+001	1.411559964340995E+001
-1.1836090E+000	-1.091507332772015E+001	1.413379964295018E+001
-1.1854411E+000	-1.104779237607241E+001	1.416649964212411E+001
-1.1872345E+000	-1.118219653611504E+001	1.419919964129804E+001
-1.1882575E+000	-1.126338907098616E+001	1.421739964083827E+001
-1.1892899E+000	-1.134778122553010E+001	1.423559964037850E+001
-1.1901885E+000	-1.143361268792208E+001	1.425379963991873E+001
-1.1912411E+000	-1.151691290699407E+001	1.427189963946148E+001
-1.1922531E+000	-1.160140383081671E+001	1.429009963900171E+001
-1.1932350E+000	-1.168481223023520E+001	1.430819963854447E+001
-1.1941977E+000	-1.176609988514242E+001	1.432639963808469E+001
-1.1952244E+000	-1.185044570107277E+001	1.434459963762492E+001
-1.1961961E+000	-1.193399675430319E+001	1.436279963716515E+001
-1.1972201E+000	-1.201742705295723E+001	1.438099963670538E+001
-1.1982282E+000	-1.210055273102549E+001	1.439919963624561E+001
-1.1992120E+000	-1.218288347186831E+001	1.441739963578584E+001
-1.2002136E+000	-1.226479360406714E+001	1.443559963532607E+001
-1.2009888E+000	-1.233057320117950E+001	1.445009963495977E+001
-1.2014620E+000	-1.235939843314037E+001	1.445699963478546E+001
-1.2007936E+000	-1.232596883395819E+001	1.446699963453284E+001
-1.1997999E+000	-1.226772998647718E+001	1.448519963407307E+001
-1.1987960E+000	-1.220777953761379E+001	1.450339963361330E+001
-1.1977593E+000	-1.214667244329128E+001	1.452149963315605E+001
-1.1968333E+000	-1.208310653736564E+001	1.453969963269628E+001
-1.1958644E+000	-1.202213605184383E+001	1.455779963223904E+001
-1.1948149E+000	-1.195919763027896E+001	1.457599963177927E+001
-1.1938139E+000	-1.189907143548490E+001	1.459419963131950E+001
-1.1928256E+000	-1.183886250809925E+001	1.461239963085973E+001
-1.1918248E+000	-1.177400434315197E+001	1.463059963039996E+001
-1.1908154E+000	-1.170935560762882E+001	1.464879962994019E+001
-1.1898032E+000	-1.164534064981990E+001	1.466699962948042E+001
-1.1888459E+000	-1.158054752386195E+001	1.468519962902064E+001
-1.1878428E+000	-1.151480789882378E+001	1.470339962856087E+001
-1.1868411E+000	-1.144909093115060E+001	1.472149962810363E+001
-1.1858155E+000	-1.138198837755638E+001	1.473969962764386E+001
-1.1848404E+000	-1.131527787759539E+001	1.475779962718661E+001
-1.1838163E+000	-1.124835572457171E+001	1.477599962672684E+001
-1.1828554E+000	-1.118433839355298E+001	1.479419962626707E+001
-1.1819035E+000	-1.111623976877547E+001	1.481239962580730E+001
-1.1808378E+000	-1.104881667538387E+001	1.483059962534753E+001
-1.1798291E+000	-1.097825327726399E+001	1.484879962488776E+001
-1.1788490E+000	-1.091060467180681E+001	1.486699962442799E+001
-1.1778468E+000	-1.084312337618775E+001	1.488519962396822E+001
-1.1768486E+000	-1.077501034075163E+001	1.490339962350845E+001
-1.1758631E+000	-1.070762410033041E+001	1.492159962304868E+001
-1.1748539E+000	-1.063735733135246E+001	1.493969962259143E+001
-1.1738347E+000	-1.057024232973285E+001	1.495789962213166E+001
-1.1728370E+000	-1.050350847138860E+001	1.497599962167442E+001
-1.1718266E+000	-1.043673530864274E+001	1.499419962121465E+001
-1.1708305E+000	-1.037120532524294E+001	1.501239962075488E+001
-1.1698451E+000	-1.030426513498150E+001	1.503059962029511E+001
-1.1688433E+000	-1.023854251652957E+001	1.504879961983534E+001
-1.1678534E+000	-1.017236468475767E+001	1.506699961937557E+001
-1.1668323E+000	-1.011173206640447E+001	1.508519961891579E+001
-1.1658344E+000	-1.005499899082065E+001	1.510339961845602E+001
-1.1648042E+000	-1.000234515056378E+001	1.512159961799625E+001
-1.1638023E+000	-9.956373333930962E+000	1.513969961753901E+001
-1.1628315E+000	-9.875923080429615E+000	1.515789961707924E+001
-1.1618505E+000	-9.736774890560895E+000	1.517599961662199E+001
-1.1608448E+000	-9.617710856039366E+000	1.519419961616222E+001
-1.1598498E+000	-9.516428294777882E+000	1.521239961570245E+001
-1.1588550E+000	-9.434042051470875E+000	1.523059961524268E+001
-1.1578512E+000	-9.366254920675964E+000	1.524879961478291E+001
-1.1568201E+000	-9.301381688546826E+000	1.526699961432314E+001
-1.1558421E+000	-9.234499497311873E+000	1.528519961386337E+001
-1.1548296E+000	-9.165943404959478E+000	1.530339961340360E+001
-1.1538578E+000	-9.102919222014691E+000	1.532159961294383E+001
-1.1528566E+000	-9.040088821524478E+000	1.533969961248658E+001
-1.1518065E+000	-8.981060135622066E+000	1.535789961202681E+001
-1.1508156E+000	-8.919928629514644E+000	1.537599961156957E+001
-1.1498379E+000	-8.847191452362154E+000	1.539419961110980E+001
-1.1488200E+000	-8.760401873363222E+000	1.541239961065003E+001
-1.1477950E+000	-8.650099875578036E+000	1.543059961019026E+001
-1.1467916E+000	-8.553249624571407E+000	1.544879960973049E+001
-1.1458230E+000	-8.499581157107201E+000	1.546699960927072E+001
-1.1448088E+000	-8.445811410847909E+000	1.548519960881094E+001
-1.1438496E+000	-8.387454095210238E+000	1.550339960835117E+001
-1.1428256E+000	-8.326233680110136E+000	1.552159960789140E+001
-1.1418569E+000	-8.263776099976212E+000	1.553969960743416E+001
-1.1408640E+000	-8.199787953679945E+000	1.555789960697439E+001
-1.1398429E+000	-8.153868171790748E+000	1.557599960651714E+001
-1.1388506E+000	-8.104888007989725E+000	1.559419960605737E+001
-1.1378618E+000	-8.044959217255396E+000	1.561239960559760E+001
-1.1368703E+000	-7.979787257495467E+000	1.563059960513783E+001
-1.1358819E+000	-7.913326433119266E+000	1.564879960467806E+001
-1.1348530E+000	-7.844619029833098E+000	1.566699960421829E+001
-1.1338500E+000	-7.777035483681573E+000	1.568519960375852E+001
-1.1328115E+000	-7.708493209957346E+000	1.570339960329875E+001
-1.1318653E+000	-7.640972401765055E+000	1.572159960283898E+001
-1.1308614E+000	-7.571556537147647E+000	1.573969960238173E+001
-1.1298633E+000	-7.503001427135359E+000	1.575789960192196E+001
-1.1288580E+000	-7.434419741754141E+000	1.577599960146472E+001
-1.1278841E+000	-7.365609457834481E+000	1.579419960100495E+001
-1.1268435E+000	-7.295846182235110E+000	1.581239960054518E+001
-1.1258152E+000	-7.222525700308907E+000	1.583059960008541E+001
-1.1248212E+000	-7.153455189579184E+000	1.584879959962564E+001
-1.1238256E+000	-7.081775845060236E+000	1.586699959916587E+001
-1.1227566E+000	-7.011769516657026E+000	1.588519959870609E+001
-1.1217793E+000	-6.941689317564396E+000	1.590339959824632E+001
-1.1208037E+000	-6.870647545449614E+000	1.592159959778655E+001
-1.1197438E+000	-6.803282366858610E+000	1.593969959732931E+001
-1.1188210E+000	-6.733241482575750E+000	1.595789959686954E+001
-1.1177807E+000	-6.664268823095199E+000	1.597599959641229E+001
-1.1168031E+000	-6.592544408178910E+000	1.599419959595252E+001
-1.1157868E+000	-6.522504153320682E+000	1.601239959549275E+001
-1.1147692E+000	-6.454535909942006E+000	1.603059959503298E+001
-1.1137855E+000	-6.384661451127471E+000	1.604879959457321E+001
-1.1127868E+000	-6.316718076696450E+000	1.606699959411344E+001
-1.1117778E+000	-6.244447175177115E+000	1.608519959365367E+001
-1.1107968E+000	-6.174557576546555E+000	1.610339959319390E+001
-1.1097705E+000	-6.103366208876068E+000	1.612159959273413E+001
-1.1088269E+000	-6.034504680353919E+000	1.613969959227688E+001
-1.1078117E+000	-5.964326074406685E+000	1.615789959181711E+001
-1.1068183E+000	-5.894552057472652E+000	1.617599959135987E+001
-1.1058073E+000	-5.824354244823127E+000	1.619419959090010E+001
-1.1047977E+000	-5.752493248843578E+000	1.621239959044033E+001
-1.1038294E+000	-5.683957887495424E+000	1.623059958998056E+001
-1.1028514E+000	-5.612946860346852E+000	1.624879958952079E+001
-1.1018363E+000	-5.543760366501594E+000	1.626699958906102E+001
-1.1007789E+000	-5.471114533612642E+000	1.628519958860124E+001
-1.0998452E+000	-5.398457560106745E+000	1.630339958814147E+001
-1.0988047E+000	-5.329857494227767E+000	1.632159958768170E+001
-1.0978333E+000	-5.259526003474065E+000	1.633969958722446E+001
-1.0968173E+000	-5.189873891682524E+000	1.635789958676469E+001
-1.0958235E+000	-5.119990878279616E+000	1.637599958630744E+001
-1.0947862E+000	-5.049505762883069E+000	1.639419958584767E+001
-1.0938026E+000	-4.978807111084436E+000	1.641239958538790E+001
-1.0927999E+000	-4.910188051858327E+000	1.643059958492813E+001
-1.0918275E+000	-4.839762468000004E+000	1.644879958446836E+001
-1.0908281E+000	-4.770164861003082E+000	1.646699958400859E+001
-1.0898350E+000	-4.698928993486035E+000	1.648519958354882E+001
-1.0888007E+000	-4.627216289010722E+000	1.650339958308905E+001
-1.0878279E+000	-4.558214291021585E+000	1.652159958262928E+001
-1.0868412E+000	-4.489105484735830E+000	1.653969958217203E+001
-1.0858228E+000	-4.418306842648681E+000	1.655789958171226E+001
-1.0848273E+000	-4.350833123913247E+000	1.657599958125502E+001
-1.0821052E+000	-4.200540507721101E+000	1.662519958001212E+001
-1.0810916E+000	-4.131144946868091E+000	1.664339957955235E+001
-1.0801601E+000	-4.061845846928449E+000	1.666159957909258E+001
-1.0790850E+000	-3.991808965066340E+000	1.667969957863534E+001
-1.0781313E+000	-3.922558087358865E+000	1.669789957817557E+001
-1.0770983E+000	-3.853618836820853E+000	1.671599957771832E+001
-1.0761039E+000	-3.783208590827700E+000	1.673419957725855E+001
-1.0751345E+000	-3.713879868406330E+000	1.675239957679878E+001
-1.0740914E+000	-3.644197669316341E+000	1.677059957633901E+001
-1.0731088E+000	-3.574498379185076E+000	1.678879957587924E+001
-1.0721278E+000	-3.505133851399501E+000	1.680699957541947E+001
-1.0711018E+000	-3.435885373857328E+000	1.682519957495970E+001
-1.0701171E+000	-3.366587584756495E+000	1.684339957449993E+001
-1.0690815E+000	-3.297290062304665E+000	1.686159957404016E+001
-1.0680789E+000	-3.229126411409670E+000	1.687969957358291E+001
-1.0671169E+000	-3.160814581185946E+000	1.689789957312314E+001
-1.0661336E+000	-3.091919238247517E+000	1.691599957266590E+001
-1.0651399E+000	-3.023083713959627E+000	1.693419957220613E+001
-1.0641572E+000	-2.954680792696585E+000	1.695239957174635E+001
-1.0631531E+000	-2.885519954907464E+000	1.697059957128658E+001
-1.0621617E+000	-2.817480904581707E+000	1.698879957082681E+001
-1.0611594E+000	-2.749507717433858E+000	1.700699957036704E+001
-1.0601625E+000	-2.680686910732131E+000	1.702519956990727E+001
-1.0591065E+000	-2.612808315510414E+000	1.704339956944750E+001
-1.0581497E+000	-2.544841672361990E+000	1.706159956898773E+001
-1.0571014E+000	-2.477015978760192E+000	1.707969956853049E+001
-1.0561659E+000	-2.409624316957265E+000	1.709789956807072E+001
-1.0551455E+000	-2.342903824822928E+000	1.711599956761347E+001
-1.0541803E+000	-2.275545328955456E+000	1.713419956715370E+001
-1.0531470E+000	-2.207803762731388E+000	1.715239956669393E+001
-1.0521380E+000	-2.140740850808601E+000	1.717059956623416E+001
-1.0511374E+000	-2.073991704868469E+000	1.718879956577439E+001
-1.0501177E+000	-2.006951671248160E+000	1.720699956531462E+001
-1.0491741E+000	-1.939638635975015E+000	1.722519956485485E+001
-1.0481267E+000	-1.873094300771262E+000	1.724339956439508E+001
-1.0471020E+000	-1.806120872111399E+000	1.726159956393531E+001
-1.0461283E+000	-1.740922553073842E+000	1.727969956347806E+001
-1.0450876E+000	-1.675549971923965E+000	1.729789956301829E+001
-1.0441374E+000	-1.609991170515920E+000	1.731599956256105E+001
-1.0431303E+000	-1.545402582130599E+000	1.733419956210128E+001
-1.0421060E+000	-1.481178259840465E+000	1.735239956164151E+001
-1.0411317E+000	-1.416491576597643E+000	1.737059956118173E+001
-1.0401471E+000	-1.352429340652577E+000	1.738879956072196E+001
-1.0391548E+000	-1.288402790898776E+000	1.740699956026219E+001
-1.0381280E+000	-1.225253852047935E+000	1.742519955980242E+001
-1.0371391E+000	-1.162256651058247E+000	1.744339955934265E+001
-1.0360864E+000	-1.099972333406985E+000	1.746159955888288E+001
-1.0350733E+000	-1.038443471558020E+000	1.747969955842564E+001
-1.0341144E+000	-9.768720326784219E-001	1.749789955796587E+001
-1.0331410E+000	-9.164082943257390E-001	1.751599955750862E+001
-1.0321190E+000	-8.567657647131988E-001	1.753419955704885E+001
-1.0310998E+000	-7.968584148576703E-001	1.755239955658908E+001
-1.0301474E+000	-7.389110481639101E-001	1.757059955612931E+001
-1.0291320E+000	-6.818051142322759E-001	1.758879955566954E+001
-1.0281177E+000	-6.249230650798756E-001	1.760699955520977E+001
-1.0271324E+000	-5.695980792728877E-001	1.762519955475000E+001
-1.0261689E+000	-5.156680920695107E-001	1.764339955429023E+001
-1.0251385E+000	-4.630417417927948E-001	1.766159955383046E+001
-1.0242040E+000	-4.122893216870259E-001	1.767969955337321E+001
-1.0231773E+000	-3.630557221165045E-001	1.769789955291344E+001
-1.0213093E+000	-2.808802627932820E-001	1.773149955206463E+001
-1.0194323E+000	-2.058180352167516E-001	1.776519955121330E+001
-1.0184696E+000	-1.685462688822752E-001	1.778339955075353E+001
-1.0174661E+000	-1.351501639441175E-001	1.780159955029376E+001
-1.0164914E+000	-1.054543097730561E-001	1.781969954983651E+001
-1.0155029E+000	-7.901047285657692E-002	1.783789954937674E+001
-1.0144974E+000	-5.625413463482187E-002	1.785599954891950E+001
-1.0134801E+000	-3.639406515079513E-002	1.787419954845973E+001
-1.0124440E+000	-1.917925459569129E-002	1.789239954799996E+001
-1.0115030E+000	-3.723466646733377E-003	1.791059954754019E+001
-1.0104785E+000	1.078923055380387E-002	1.792879954708042E+001
-1.0094398E+000	2.554501532264647E-002	1.794699954662065E+001
-1.0084199E+000	4.189531829480719E-002	1.796519954616087E+001
-1.0074288E+000	6.034254372494718E-002	1.798339954570110E+001
-1.0064639E+000	8.156237590961513E-002	1.800159954524133E+001
-1.0054673E+000	1.061918409498133E-001	1.801969954478409E+001
-1.0044724E+000	1.340062888960043E-001	1.803789954432432E+001
-1.0035014E+000	1.649842555174685E-001	1.805599954386707E+001
-1.0024436E+000	2.002932332995595E-001	1.807419954340730E+001
-1.0014981E+000	2.381616293889945E-001	1.809239954294753E+001
-1.0004878E+000	2.793421636057287E-001	1.811059954248776E+001
-9.9949753E-001	3.237527094202157E-001	1.812879954202799E+001
-9.9848378E-001	3.708764114439864E-001	1.814699954156822E+001
-9.9742579E-001	4.219984012508275E-001	1.816519954110845E+001
-9.9644667E-001	4.747186660789327E-001	1.818339954064868E+001
-9.9543655E-001	5.298075359076169E-001	1.820159954018891E+001
-9.9443376E-001	5.870492916054477E-001	1.821979953972914E+001
-9.9341112E-001	6.459358900118570E-001	1.823789953927189E+001
-9.9239916E-001	7.071762056147421E-001	1.825609953881212E+001
-9.9146253E-001	7.690961486841665E-001	1.827419953835488E+001
-9.9044454E-001	8.326820626196190E-001	1.829239953789511E+001
-9.8945993E-001	8.985092277116173E-001	1.831059953743534E+001
-9.8843515E-001	9.645109573651744E-001	1.832879953697557E+001
-9.8745251E-001	1.031551885198255E+000	1.834699953651580E+001
-9.8564070E-001	1.157017575623395E+000	1.837969953568972E+001
-9.8388463E-001	1.283077281963351E+000	1.841239953486365E+001
-9.8287696E-001	1.352972113836280E+000	1.843059953440388E+001
-9.8185843E-001	1.423103378440548E+000	1.844879953394411E+001
-9.8084909E-001	1.493265595114451E+000	1.846699953348434E+001
-9.7986633E-001	1.564639407291825E+000	1.848519953302457E+001
-9.7885364E-001	1.635149992366390E+000	1.850339953256480E+001
-9.7788590E-001	1.705640244806499E+000	1.852159953210503E+001
-9.7687745E-001	1.778009900255358E+000	1.853979953164526E+001
-9.7589314E-001	1.848926803074129E+000	1.855789953118801E+001
-9.7487700E-001	1.920536881156361E+000	1.857609953072824E+001
-9.7388142E-001	1.992529476847409E+000	1.859419953027100E+001
-9.7291648E-001	2.064311469087340E+000	1.861239952981123E+001
-9.7186077E-001	2.136971723860731E+000	1.863059952935146E+001
-9.7087044E-001	2.209185433932916E+000	1.864879952889169E+001
-9.6986538E-001	2.281347324908140E+000	1.866699952843192E+001
-9.6889579E-001	2.353755000233656E+000	1.868519952797215E+001
-9.6785063E-001	2.426102895580419E+000	1.870339952751237E+001
-9.6687686E-001	2.499229278251896E+000	1.872159952705260E+001
-9.6585524E-001	2.570916111376583E+000	1.873979952659283E+001
-9.6492529E-001	2.642245271737570E+000	1.875789952613559E+001
-9.6388143E-001	2.715247525366735E+000	1.877609952567582E+001
-9.6289420E-001	2.787076737431853E+000	1.879419952521857E+001
-9.6189153E-001	2.859598808980934E+000	1.881239952475880E+001
-9.6088207E-001	2.932682176806580E+000	1.883059952429903E+001
-9.5986581E-001	3.004320645232394E+000	1.884879952383926E+001
-9.5885456E-001	3.076289199592496E+000	1.886699952337949E+001
-9.5785743E-001	3.148854392894165E+000	1.888519952291972E+001
-9.5682836E-001	3.220784980249469E+000	1.890339952245995E+001
-9.5587075E-001	3.292987921824910E+000	1.892159952200018E+001
-9.5485973E-001	3.364532003678936E+000	1.893979952154041E+001
-9.5385754E-001	3.435707584621369E+000	1.895789952108316E+001
-9.5285296E-001	3.506429781130059E+000	1.897609952062339E+001
-9.5185786E-001	3.576864811478217E+000	1.899419952016615E+001
-9.5088685E-001	3.648184310753900E+000	1.901239951970638E+001
-9.4987607E-001	3.718682025627395E+000	1.903059951924661E+001
-9.4886321E-001	3.788443198836426E+000	1.904879951878684E+001
-9.4785780E-001	3.859224777296197E+000	1.906699951832707E+001
-9.4689494E-001	3.929843618984251E+000	1.908519951786730E+001
-9.4586778E-001	4.000835407125519E+000	1.910339951740752E+001
-9.4482565E-001	4.071971012170359E+000	1.912159951694775E+001
-9.4385755E-001	4.142257435020142E+000	1.913979951648798E+001
-9.4282603E-001	4.212643898977561E+000	1.915789951603074E+001
-9.4187659E-001	4.284635541707647E+000	1.917609951557097E+001
-9.4087368E-001	4.355349870480424E+000	1.919419951511372E+001
-9.3989486E-001	4.426797232413449E+000	1.921239951465395E+001
-9.3889141E-001	4.498832480282303E+000	1.923059951419418E+001
-9.3790466E-001	4.570747394569032E+000	1.924879951373441E+001
-9.3684018E-001	4.642440405506186E+000	1.926699951327464E+001
-9.3588609E-001	4.713930023407059E+000	1.928519951281487E+001
-9.3485016E-001	4.786205789174252E+000	1.930339951235510E+001
-9.3387341E-001	4.858303605383494E+000	1.932159951189533E+001
-9.3285173E-001	4.930574061848759E+000	1.933979951143556E+001
-9.3187404E-001	5.003400030419414E+000	1.935789951097831E+001
-9.3086201E-001	5.075599232518400E+000	1.937609951051854E+001
-9.2991996E-001	5.147062760155384E+000	1.939419951006130E+001
-9.2889959E-001	5.220005886983579E+000	1.941239950960153E+001
-9.2791116E-001	5.291414124609489E+000	1.943059950914176E+001
-9.2691398E-001	5.362010313697695E+000	1.944879950868199E+001
-9.2587030E-001	5.433121754083700E+000	1.946699950822222E+001
-9.2489678E-001	5.503173226227119E+000	1.948519950776245E+001
-9.2389727E-001	5.574266951149539E+000	1.950339950730267E+001
-9.2291075E-001	5.646451215500505E+000	1.952159950684290E+001
-9.2186713E-001	5.719430124069120E+000	1.953979950638313E+001
-9.2083710E-001	5.796012128208901E+000	1.955789950592589E+001
-9.1986758E-001	5.866297945196223E+000	1.957609950546612E+001
-9.1883856E-001	5.935300632675265E+000	1.959419950500887E+001
-9.1782010E-001	6.005912391914087E+000	1.961239950454910E+001
-9.1688597E-001	6.076170534222570E+000	1.963059950408933E+001
-9.1584718E-001	6.146092711970581E+000	1.964879950362956E+001
-9.1482586E-001	6.214483522278513E+000	1.966699950316979E+001
-9.1385347E-001	6.284943634998502E+000	1.968519950271002E+001
-9.1282713E-001	6.359110273929645E+000	1.970339950225025E+001
-9.1184050E-001	6.432863231639315E+000	1.972159950179048E+001
-9.1080040E-001	6.507276837963886E+000	1.973979950133071E+001
-9.0979815E-001	6.582756978402182E+000	1.975789950087346E+001
-9.0884560E-001	6.664413146453867E+000	1.977609950041369E+001
-9.0783519E-001	6.753238768003328E+000	1.979419949995645E+001
-9.0682518E-001	6.840945974628383E+000	1.981239949949668E+001
-9.0581191E-001	6.924445407928488E+000	1.983059949903691E+001
-9.0479678E-001	7.004977758810305E+000	1.984879949857714E+001
-9.0383655E-001	7.083280642239799E+000	1.986699949811737E+001
-9.0286928E-001	7.160626042888659E+000	1.988519949765760E+001
-9.0182722E-001	7.235337526587472E+000	1.990339949719782E+001
-9.0082920E-001	7.309640181718819E+000	1.992159949673805E+001
-8.9982843E-001	7.384938890886744E+000	1.993979949627828E+001
-8.9883661E-001	7.458485406490027E+000	1.995789949582104E+001
-8.9782888E-001	7.532112019591885E+000	1.997609949536127E+001
-8.9685076E-001	7.604778367317323E+000	1.999419949490402E+001
-8.9580429E-001	7.676826510578422E+000	2.001239949444425E+001
-8.9483237E-001	7.750191599712146E+000	2.003059949398448E+001
-8.9384437E-001	7.822962216633137E+000	2.004879949352471E+001
-8.9283228E-001	7.894847720825112E+000	2.006699949306494E+001
-8.9185733E-001	7.965904648274886E+000	2.008519949260517E+001
-8.9082539E-001	8.036995721553907E+000	2.010339949214540E+001
-8.8986850E-001	8.107397580383065E+000	2.012159949168563E+001
-8.8885367E-001	8.177601426839828E+000	2.013979949122586E+001
-8.8781452E-001	8.247674373013041E+000	2.015789949076861E+001
-8.8686824E-001	8.318355292468141E+000	2.017609949030884E+001
-8.8586205E-001	8.386965671781383E+000	2.019419948985160E+001
-8.8484055E-001	8.455671949830020E+000	2.021239948939183E+001
-8.8382882E-001	8.525339549289242E+000	2.023059948893206E+001
-8.8285172E-001	8.594321625734267E+000	2.024879948847229E+001
-8.8183391E-001	8.663161210316012E+000	2.026699948801252E+001
-8.8082063E-001	8.732581657352995E+000	2.028519948755275E+001
-8.7982255E-001	8.800138824705670E+000	2.030339948709297E+001
-8.7887371E-001	8.867421175575851E+000	2.032159948663320E+001
-8.7779832E-001	8.935480405826382E+000	2.033979948617343E+001
-8.7683600E-001	9.002337106584037E+000	2.035789948571619E+001
-8.7584424E-001	9.069220548205898E+000	2.037609948525642E+001
-8.7484604E-001	9.135431164939249E+000	2.039419948479917E+001
-8.7382495E-001	9.201842966130585E+000	2.041239948433940E+001
-8.7285125E-001	9.267556950449944E+000	2.043059948387963E+001
-8.7186509E-001	9.332417779397673E+000	2.044879948341986E+001
-8.7085116E-001	9.398266139989914E+000	2.046699948296009E+001
-8.6983359E-001	9.463282845732664E+000	2.048519948250032E+001
-8.6885434E-001	9.527838753963415E+000	2.050339948204055E+001
-8.6779940E-001	9.592381307082917E+000	2.052159948158078E+001
-8.6683142E-001	9.655463735868324E+000	2.053979948112101E+001
-8.6586165E-001	9.717690242109512E+000	2.055789948066376E+001
-8.6484337E-001	9.781085977031875E+000	2.057609948020399E+001
-8.6385947E-001	9.843208167029587E+000	2.059419947974675E+001
-8.6283684E-001	9.904070533884749E+000	2.061239947928698E+001
-8.6183012E-001	9.965294004831364E+000	2.063059947882721E+001
-8.6087060E-001	1.002461896069894E+001	2.064879947836744E+001
-8.5984129E-001	1.008414357678921E+001	2.066699947790767E+001
-8.5886025E-001	1.014433841076574E+001	2.068519947744790E+001
-8.5781485E-001	1.020395634748590E+001	2.070339947698812E+001
-8.5683882E-001	1.026172386055313E+001	2.072159947652835E+001
-8.5586035E-001	1.031812259881963E+001	2.073979947606858E+001
-8.5485458E-001	1.037440293365056E+001	2.075789947561134E+001
-8.5388297E-001	1.043131559745031E+001	2.077609947515157E+001
-8.5287631E-001	1.048708108114758E+001	2.079419947469432E+001
-8.5186374E-001	1.054280714265457E+001	2.081239947423455E+001
-8.5085469E-001	1.059621512162975E+001	2.083059947377478E+001
-8.4989786E-001	1.064785806391299E+001	2.084879947331501E+001
-8.4886849E-001	1.069993074263743E+001	2.086699947285524E+001
-8.4787655E-001	1.075126923100976E+001	2.088519947239547E+001
-8.4685796E-001	1.080126776964201E+001	2.090339947193570E+001
-8.4587771E-001	1.084832678633492E+001	2.092159947147593E+001
-8.4488982E-001	1.089518862144976E+001	2.093979947101616E+001
-8.4386110E-001	1.094247935933097E+001	2.095789947055891E+001
-8.4202164E-001	1.104299945541156E+001	2.099069946973032E+001
-8.4023446E-001	1.114448106826805E+001	2.102339946890424E+001
-8.3920169E-001	1.118284639948754E+001	2.104159946844447E+001
-8.3820868E-001	1.122027106274192E+001	2.105979946798470E+001
-8.3725178E-001	1.125668629433638E+001	2.107789946752746E+001
-8.3619529E-001	1.128959519701237E+001	2.109609946706769E+001
-8.3523667E-001	1.132106185224724E+001	2.111419946661044E+001
-8.3425272E-001	1.134952641289406E+001	2.113239946615067E+001
-8.3323294E-001	1.137550563935824E+001	2.115059946569090E+001
-8.3226800E-001	1.140034641572612E+001	2.116879946523113E+001
-8.3125114E-001	1.142446977201762E+001	2.118699946477136E+001
-8.3026969E-001	1.144513946088350E+001	2.120519946431159E+001
-8.2924092E-001	1.146385200808690E+001	2.122339946385182E+001
-8.2820487E-001	1.148088291560009E+001	2.124159946339205E+001
-8.2722074E-001	1.149371729718477E+001	2.125979946293228E+001
-8.2626259E-001	1.150563357568083E+001	2.127789946247503E+001
-8.2529527E-001	1.151374589918575E+001	2.129609946201526E+001
-8.2426029E-001	1.151566525850353E+001	2.131419946155802E+001
-8.2323229E-001	1.151608466102585E+001	2.133239946109825E+001
-8.2224846E-001	1.151207497548771E+001	2.135059946063848E+001
-8.2124442E-001	1.150282476856944E+001	2.136879946017871E+001
-8.2023627E-001	1.148926977348037E+001	2.138699945971894E+001
-8.1923932E-001	1.147512013915838E+001	2.140519945925917E+001
-8.1820506E-001	1.145800755656350E+001	2.142339945879939E+001
-8.1719536E-001	1.143358492774937E+001	2.144159945833962E+001
-8.1619000E-001	1.140092565827985E+001	2.145979945787985E+001
-8.1519067E-001	1.137122704769357E+001	2.147789945742261E+001
-8.1421274E-001	1.133048428057890E+001	2.149609945696284E+001
-8.1321120E-001	1.128427619040009E+001	2.151419945650559E+001
-8.1220722E-001	1.123876485890008E+001	2.153239945604582E+001
-8.1120640E-001	1.118779467798595E+001	2.155059945558605E+001
-8.1020969E-001	1.112644509404171E+001	2.156879945512628E+001
-8.0922186E-001	1.105825346919097E+001	2.158699945466651E+001
-8.0819041E-001	1.097626824887786E+001	2.160519945420674E+001
-8.0721986E-001	1.089670158704607E+001	2.162339945374697E+001
-8.0625236E-001	1.080545465186606E+001	2.164159945328720E+001
-8.0523211E-001	1.071513161495693E+001	2.165979945282743E+001
-8.0424231E-001	1.060174888445113E+001	2.167799945236766E+001
-8.0324274E-001	1.048135369776941E+001	2.169609945191041E+001
-8.0223495E-001	1.035040015699688E+001	2.171429945145064E+001
-8.0122846E-001	1.019965804139287E+001	2.173239945099340E+001
-8.0021739E-001	1.004032335096019E+001	2.175059945053363E+001
-7.9926515E-001	9.869952020812349E+000	2.176879945007386E+001
-7.9819161E-001	9.678840415470503E+000	2.178699944961409E+001
-7.9720753E-001	9.447989433095216E+000	2.180519944915432E+001
-7.9626417E-001	9.250757925139681E+000	2.182339944869454E+001
-7.9523343E-001	9.040132284273497E+000	2.184159944823477E+001
-7.9425263E-001	8.814261651002781E+000	2.185979944777500E+001
-7.9318607E-001	8.578499482354005E+000	2.187799944731523E+001
-7.9225463E-001	8.327906741312262E+000	2.189609944685799E+001
-7.9123420E-001	8.073588309814170E+000	2.191429944639822E+001
-7.9019934E-001	7.837768501915594E+000	2.193239944594097E+001
-7.8922588E-001	7.578912355587264E+000	2.195059944548120E+001
-7.8822315E-001	7.335184745454185E+000	2.196879944502143E+001
-7.8722095E-001	7.101411123846390E+000	2.198699944456166E+001
-7.8623480E-001	6.874662939895209E+000	2.200519944410189E+001
-7.8519559E-001	6.648807503537428E+000	2.202339944364212E+001
-7.8420943E-001	6.433655724438244E+000	2.204159944318235E+001
-7.8324246E-001	6.227648775552112E+000	2.205979944272258E+001
-7.8224552E-001	6.033068754505813E+000	2.207799944226281E+001
-7.8122729E-001	5.879111409463263E+000	2.209609944180556E+001
-7.8020686E-001	5.717789395668603E+000	2.211429944134579E+001
-7.7923030E-001	5.563399305049273E+000	2.213239944088855E+001
-7.7822345E-001	5.413704419426802E+000	2.215059944042878E+001
-7.7725887E-001	5.274842963404026E+000	2.216879943996901E+001
-7.7623880E-001	5.133925892376331E+000	2.218699943950924E+001
-7.7524489E-001	4.973177855425504E+000	2.220519943904947E+001
-7.7420080E-001	4.836623369266334E+000	2.222339943858969E+001
-7.7322459E-001	4.722086318436922E+000	2.224159943812992E+001
-7.7222145E-001	4.629199798823137E+000	2.225979943767015E+001
-7.7122921E-001	4.534739238096464E+000	2.227799943721038E+001
-7.7022642E-001	4.448005844505488E+000	2.229609943675314E+001
-7.6831979E-001	4.219517377337780E+000	2.232979943590180E+001
-7.6658833E-001	4.037349415452368E+000	2.236339943505300E+001
-7.6553547E-001	3.943315307850511E+000	2.238159943459323E+001
-7.6455462E-001	3.871295157392940E+000	2.239979943413346E+001
-7.6360554E-001	3.801188563201123E+000	2.241799943367369E+001
-7.6255637E-001	3.737370750510397E+000	2.243609943321644E+001
-7.6156038E-001	3.663236955544100E+000	2.245429943275667E+001
-7.6056820E-001	3.576821990447431E+000	2.247239943229943E+001
-7.5955290E-001	3.497580684112705E+000	2.249059943183966E+001
-7.5858706E-001	3.431310026711088E+000	2.250879943137988E+001
-7.5757295E-001	3.361895797965007E+000	2.252699943092011E+001
-7.5655305E-001	3.307538163016851E+000	2.254519943046034E+001
-7.5554490E-001	3.258822739115217E+000	2.256339943000057E+001
-7.5453615E-001	3.198750730712977E+000	2.258159942954080E+001
-7.5354338E-001	3.138079008305581E+000	2.259979942908103E+001
-7.5258034E-001	3.074285505021495E+000	2.261799942862126E+001
-7.5157881E-001	3.013246380758517E+000	2.263609942816402E+001
-7.5057226E-001	2.961546793110948E+000	2.265429942770425E+001
-7.4955237E-001	2.914136436263604E+000	2.267239942724700E+001
-7.4858010E-001	2.860634712893066E+000	2.269059942678723E+001
-7.4759996E-001	2.792032535910241E+000	2.270879942632746E+001
-7.4660039E-001	2.758299301074047E+000	2.272699942586769E+001
-7.4562049E-001	2.699000423946757E+000	2.274519942540792E+001
-7.4456221E-001	2.642913997709389E+000	2.276339942494815E+001
-7.4358284E-001	2.610845948319607E+000	2.278159942448838E+001
-7.4258941E-001	2.568948959677323E+000	2.279979942402861E+001
-7.4155778E-001	2.525270689505997E+000	2.281799942356884E+001
-7.4053240E-001	2.483169889192531E+000	2.283609942311159E+001
-7.3953116E-001	2.443657181264811E+000	2.285429942265182E+001
-7.3854882E-001	2.409685111600094E+000	2.287239942219458E+001
-7.3754972E-001	2.357463381975524E+000	2.289059942173481E+001
-7.3656237E-001	2.311707486439412E+000	2.290879942127503E+001
-7.3552120E-001	2.272229457764729E+000	2.292699942081526E+001
-7.3459691E-001	2.250201421767109E+000	2.294519942035549E+001
-7.3354274E-001	2.221208360227864E+000	2.296339941989572E+001
-7.3254830E-001	2.178869992494581E+000	2.298159941943595E+001
-7.3160934E-001	2.152512768392530E+000	2.299979941897618E+001
-7.3050600E-001	2.109049664605870E+000	2.301799941851641E+001
-7.2958040E-001	2.085315290562534E+000	2.303609941805917E+001
-7.2854942E-001	2.055408757529502E+000	2.305429941759940E+001
-7.2757167E-001	2.024698368891528E+000	2.307239941714215E+001
-7.2659045E-001	1.988940902908396E+000	2.309059941668238E+001
-7.2554791E-001	1.951885006544977E+000	2.310879941622261E+001
-7.2455764E-001	1.917304110204483E+000	2.312699941576284E+001
-7.2359616E-001	1.884319116570413E+000	2.314519941530307E+001
-7.2253728E-001	1.862804783199255E+000	2.316339941484330E+001
-7.2155529E-001	1.842726216460695E+000	2.318159941438353E+001
-7.2056955E-001	1.817514498427329E+000	2.319979941392376E+001
-7.1957487E-001	1.785241941830554E+000	2.321799941346399E+001
-7.1858811E-001	1.779533032511860E+000	2.323609941300674E+001
-7.1759528E-001	1.744353764255842E+000	2.325429941254697E+001
-7.1654510E-001	1.701165778898607E+000	2.327239941208973E+001
-7.1552712E-001	1.686197188310324E+000	2.329059941162996E+001
-7.1452743E-001	1.690494901291665E+000	2.330879941117018E+001
-7.1354878E-001	1.682619639363413E+000	2.332699941071041E+001
-7.1254712E-001	1.652879615464226E+000	2.334519941025064E+001
-7.1153146E-001	1.633308521349258E+000	2.336339940979087E+001
-7.1051645E-001	1.613415266050980E+000	2.338159940933110E+001
-7.0953208E-001	1.595233672661938E+000	2.339979940887133E+001
-7.0859218E-001	1.596179729009550E+000	2.341799940841156E+001
-7.0752156E-001	1.578265169129509E+000	2.343609940795432E+001
-7.0650321E-001	1.563505431283037E+000	2.345429940749455E+001
-7.0559114E-001	1.549140950319604E+000	2.347239940703730E+001
-7.0455617E-001	1.550756478841169E+000	2.349059940657753E+001
-7.0349771E-001	1.522205880266135E+000	2.350879940611776E+001
-7.0253438E-001	1.493622147264642E+000	2.352699940565799E+001
-7.0153052E-001	1.473441034260139E+000	2.354519940519822E+001
-7.0059270E-001	1.465070462822004E+000	2.356339940473845E+001
-6.9953406E-001	1.445313498032526E+000	2.358159940427868E+001
-6.9855124E-001	1.404839025764936E+000	2.359979940381891E+001
-6.9757140E-001	1.375939971835515E+000	2.361799940335914E+001
-6.9653976E-001	1.390854663250074E+000	2.363609940290189E+001
-6.9554693E-001	1.374780016539646E+000	2.365429940244212E+001
-6.9454724E-001	1.363297694326359E+000	2.367239940198488E+001
-6.9356948E-001	1.355514503433939E+000	2.369059940152511E+001
-6.9254589E-001	1.344516829255877E+000	2.370879940106533E+001
-6.9155186E-001	1.342696350953744E+000	2.372699940060556E+001
-6.9050986E-001	1.316634900972432E+000	2.374519940014579E+001
-6.8949300E-001	1.294438727731568E+000	2.376339939968602E+001
-6.8848020E-001	1.274998618412489E+000	2.378159939922625E+001
-6.8750209E-001	1.252687147954795E+000	2.379979939876648E+001
-6.8653429E-001	1.229959453524248E+000	2.381799939830671E+001
-6.8552631E-001	1.220254746277213E+000	2.383609939784947E+001
-6.8454927E-001	1.198422621287136E+000	2.385429939738970E+001
-6.8353146E-001	1.168522252587649E+000	2.387239939693245E+001
-6.8252605E-001	1.153577490605230E+000	2.389059939647268E+001
-6.8154317E-001	1.150131440757800E+000	2.390879939601291E+001
-6.8054622E-001	1.135922925742118E+000	2.392699939555314E+001
-6.7952079E-001	1.122066115837818E+000	2.394519939509337E+001
-6.7853552E-001	1.106551184350758E+000	2.396339939463360E+001
-6.7753476E-001	1.089708919836800E+000	2.398159939417383E+001
-6.7655939E-001	1.075733073030757E+000	2.399979939371406E+001
-6.7552054E-001	1.071886985187945E+000	2.401799939325429E+001
-6.7455727E-001	1.071212452387922E+000	2.403609939279704E+001
-6.7352200E-001	1.076927605202357E+000	2.405429939233727E+001
-6.7255205E-001	1.055869010717768E+000	2.407239939188003E+001
-6.7155230E-001	1.043665281083527E+000	2.409059939142026E+001
-6.7056686E-001	1.038938944580078E+000	2.410879939096048E+001
-6.6957331E-001	1.029949663168322E+000	2.412699939050071E+001
-6.6855848E-001	1.016784384546849E+000	2.414519939004094E+001
-6.6756177E-001	1.004633931159155E+000	2.416339938958117E+001
-6.6655350E-001	9.926791282257135E-001	2.418159938912140E+001
-6.6554850E-001	9.882802478287651E-001	2.419979938866163E+001
-6.6453707E-001	9.868865231642658E-001	2.421799938820186E+001
-6.6352367E-001	9.826685698863926E-001	2.423609938774462E+001
-6.6253817E-001	9.708434198994524E-001	2.425429938728485E+001
-6.6151112E-001	9.664579405903631E-001	2.427239938682760E+001
-6.6051501E-001	9.568646457068972E-001	2.429059938636783E+001
-6.5955526E-001	9.507560897868412E-001	2.430879938590806E+001
-6.5853453E-001	9.585936863702287E-001	2.432699938544829E+001
-6.5752524E-001	9.664489187413814E-001	2.434519938498852E+001
-6.5651840E-001	9.509244668888073E-001	2.436339938452875E+001
-6.5552533E-001	9.442870340787071E-001	2.438159938406898E+001
-6.5454245E-001	9.303464152963814E-001	2.439979938360921E+001
-6.5360200E-001	9.263894284916372E-001	2.441799938314944E+001
-6.5254718E-001	9.222135210386782E-001	2.443609938269219E+001
-6.5155858E-001	9.003184445041394E-001	2.445429938223242E+001
-6.5055388E-001	8.572322240122059E-001	2.447239938177518E+001
-6.4956105E-001	8.320741835141128E-001	2.449059938131541E+001
-6.4856464E-001	8.430643203600150E-001	2.450879938085563E+001
-6.4751840E-001	8.588211732394075E-001	2.452699938039586E+001
-6.4654839E-001	8.569240095639019E-001	2.454519937993609E+001
-6.4552814E-001	8.560102375496825E-001	2.456339937947632E+001
-6.4455497E-001	8.468209110177707E-001	2.458159937901655E+001
-6.4351660E-001	8.326409187940200E-001	2.459979937855678E+001
-6.4249951E-001	8.244669762576340E-001	2.461799937809701E+001
-6.4154959E-001	8.121993356602797E-001	2.463609937763977E+001
-6.4052916E-001	8.127219771345420E-001	2.465429937718000E+001
-6.3955575E-001	8.065636127096869E-001	2.467239937672275E+001
-6.3856059E-001	7.959449415140591E-001	2.469059937626298E+001
-6.3753629E-001	7.887435645273904E-001	2.470879937580321E+001
-6.3654071E-001	7.874713304475325E-001	2.472699937534344E+001
-6.3553399E-001	7.882726452858506E-001	2.474519937488367E+001
-6.3455933E-001	7.738672966523694E-001	2.476339937442390E+001
-6.3356942E-001	7.752674153846972E-001	2.478159937396413E+001
-6.3256627E-001	7.678263607866516E-001	2.479979937350436E+001
-6.3151264E-001	7.597675913286106E-001	2.481799937304459E+001
-6.3057101E-001	7.601910713646163E-001	2.483609937258734E+001
-6.2958133E-001	7.601746344570945E-001	2.485429937212757E+001
-6.2856096E-001	7.640682291693803E-001	2.487239937167033E+001
-6.2753379E-001	7.560924768947617E-001	2.489059937121056E+001
-6.2655503E-001	7.559247429732494E-001	2.490879937075078E+001
-6.2554163E-001	7.454586163026891E-001	2.492699937029101E+001
-6.2456465E-001	7.313149853405072E-001	2.494519936983124E+001
-6.2362200E-001	7.316476935747964E-001	2.496339936937147E+001
-6.2255692E-001	7.467374003719431E-001	2.498159936891170E+001
-6.2152618E-001	7.433323158428298E-001	2.499979936845193E+001
-6.2057871E-001	7.427952833950715E-001	2.501799936799216E+001
-6.1957228E-001	7.210623450738218E-001	2.503609936753492E+001
-6.1857516E-001	7.053122787034987E-001	2.505429936707515E+001
-6.1758989E-001	6.995694001341564E-001	2.507239936661790E+001
-6.1659014E-001	7.109980565859245E-001	2.509059936615813E+001
-6.1556882E-001	7.036500108723613E-001	2.510879936569836E+001
-6.1456984E-001	6.966360430619343E-001	2.512699936523859E+001
-6.1356395E-001	6.876359387096471E-001	2.514519936477882E+001
-6.1255026E-001	6.842095639011472E-001	2.516339936431905E+001
-6.1152476E-001	6.648599521484145E-001	2.518159936385928E+001
-6.1053491E-001	6.440939263304366E-001	2.519979936339951E+001
-6.0956341E-001	6.265929731426798E-001	2.521799936293974E+001
-6.0859299E-001	6.252418931278321E-001	2.523619936247997E+001
-6.0754150E-001	6.227680133471694E-001	2.525429936202272E+001
-6.0654545E-001	6.161213232388292E-001	2.527249936156295E+001
-6.0554659E-001	6.056899582808164E-001	2.529059936110571E+001
-6.0459518E-001	5.980006394476263E-001	2.530879936064593E+001
-6.0354745E-001	6.010174011380052E-001	2.532699936018616E+001
-6.0254931E-001	5.991115623971499E-001	2.534519935972639E+001
-6.0153615E-001	6.087731715132738E-001	2.536339935926662E+001
-6.0053843E-001	6.185807994794015E-001	2.538159935880685E+001
-5.9958059E-001	6.402083137277037E-001	2.539979935834708E+001
-5.9856945E-001	6.368646627700880E-001	2.541799935788731E+001
-5.9756106E-001	6.119628207553625E-001	2.543619935742754E+001
-5.9656513E-001	6.095449325778057E-001	2.545429935697030E+001
-5.9554785E-001	6.134897856892625E-001	2.547249935651053E+001
-5.9457248E-001	6.091413426031260E-001	2.549059935605328E+001
-5.9358335E-001	5.988794012154215E-001	2.550879935559351E+001
-5.9259617E-001	5.975973224585367E-001	2.552699935513374E+001
-5.9161019E-001	6.015933750174588E-001	2.554519935467397E+001
-5.9060127E-001	6.095383731807329E-001	2.556339935421420E+001
-5.8957368E-001	6.143374014713974E-001	2.558159935375443E+001
-5.8860892E-001	6.144099827583247E-001	2.559979935329466E+001
-5.8756572E-001	6.265905721726401E-001	2.561799935283489E+001
-5.8653724E-001	6.133859409814395E-001	2.563619935237512E+001
-5.8554524E-001	6.081654001947197E-001	2.565429935191787E+001
-5.8453113E-001	5.941253500864114E-001	2.567249935145810E+001
-5.8354545E-001	5.965385975452473E-001	2.569059935100086E+001
-5.8254552E-001	5.843551625815664E-001	2.570879935054109E+001
-5.8155257E-001	5.833958606803566E-001	2.572699935008131E+001
-5.8056962E-001	5.876554274045656E-001	2.574519934962154E+001
-5.7958937E-001	5.855604389205402E-001	2.576339934916177E+001
-5.7858992E-001	5.792133226740860E-001	2.578159934870200E+001
-5.7754946E-001	5.757057170542641E-001	2.579979934824223E+001
-5.7657552E-001	5.799382721823534E-001	2.581799934778246E+001
-5.7552481E-001	5.786538004943331E-001	2.583619934732269E+001
-5.7459003E-001	5.589400893767156E-001	2.585429934686545E+001
-5.7356960E-001	5.630119407181573E-001	2.587249934640568E+001
-5.7256669E-001	5.550888408043573E-001	2.589059934594843E+001
-5.7159120E-001	5.430965415395159E-001	2.590879934548866E+001
-5.7057178E-001	5.341363821530756E-001	2.592699934502889E+001
-5.6957304E-001	5.244864498548996E-001	2.594519934456912E+001
-5.6854576E-001	5.368967995308811E-001	2.596339934410935E+001
-5.6753856E-001	5.398371466083383E-001	2.598159934364958E+001
-5.6655425E-001	5.441798248453207E-001	2.599979934318981E+001
-5.6554937E-001	5.344831752477273E-001	2.601799934273004E+001
-5.6456161E-001	5.356748046853204E-001	2.603619934227027E+001
-5.6355840E-001	5.405733058528033E-001	2.605429934181302E+001
-5.6255078E-001	5.342426670577254E-001	2.607249934135325E+001
-5.6153673E-001	5.296472052646006E-001	2.609059934089601E+001
-5.6056076E-001	5.228930726465665E-001	2.610879934043624E+001
-5.5957931E-001	5.325966424331452E-001	2.612699933997646E+001
-5.5852240E-001	5.341489468564902E-001	2.614519933951669E+001
-5.5758208E-001	5.390182270441279E-001	2.616339933905692E+001
-5.5655575E-001	5.382483073362585E-001	2.618159933859715E+001
-5.5557674E-001	5.273030925996420E-001	2.619979933813738E+001
-5.5454588E-001	5.068157496407810E-001	2.621799933767761E+001
-5.5359477E-001	5.087382241958625E-001	2.623619933721784E+001
-5.5258518E-001	5.095001453832733E-001	2.625429933676060E+001
-5.5160725E-001	5.022147395556091E-001	2.627249933630083E+001
-5.5064410E-001	4.978795398662736E-001	2.629059933584358E+001
-5.4962713E-001	5.023144431866524E-001	2.630879933538381E+001
-5.4861945E-001	5.126107791268364E-001	2.632699933492404E+001
-5.4759628E-001	5.179664002129494E-001	2.634519933446427E+001
-5.4659039E-001	5.114666839255155E-001	2.636339933400450E+001
-5.4559118E-001	5.124629910808149E-001	2.638159933354473E+001
-5.4456419E-001	5.085300085146178E-001	2.639979933308496E+001
-5.4360145E-001	5.183254046024892E-001	2.641799933262519E+001
-5.4256749E-001	5.154179058026340E-001	2.643619933216542E+001
-5.4155999E-001	5.009977470186548E-001	2.645429933170817E+001
-5.4061592E-001	4.993814881465610E-001	2.647249933124840E+001
-5.3959870E-001	4.982788575881340E-001	2.649059933079116E+001
-5.3863466E-001	5.080683424126207E-001	2.650879933033139E+001
-5.3758651E-001	5.013157218774200E-001	2.652699932987161E+001
-5.3658015E-001	5.017507164898092E-001	2.654519932941184E+001
-5.3556919E-001	5.027448378946264E-001	2.656339932895207E+001
-5.3457493E-001	5.123106074837480E-001	2.658159932849230E+001
-5.3355414E-001	4.907109028443966E-001	2.659979932803253E+001
-5.3258663E-001	4.981456302606100E-001	2.661799932757276E+001
-5.3157681E-001	4.877664373119979E-001	2.663619932711299E+001
-5.3056031E-001	4.746487216656021E-001	2.665429932665575E+001
-5.2958333E-001	4.845768134454618E-001	2.667249932619598E+001
-5.2856660E-001	4.917359309713909E-001	2.669059932573873E+001
-5.2759814E-001	4.827904820703406E-001	2.670879932527896E+001
-5.2660245E-001	4.862893369787091E-001	2.672699932481919E+001
-5.2553445E-001	4.785273492324897E-001	2.674519932435942E+001
-5.2457690E-001	4.841966527457373E-001	2.676339932389965E+001
-5.2355689E-001	4.735608263213820E-001	2.678159932343988E+001
-5.2255249E-001	4.752845400024381E-001	2.679979932298011E+001
-5.2157390E-001	4.867485953335891E-001	2.681799932252034E+001
-5.2061123E-001	4.742940974126515E-001	2.683619932206057E+001
-5.1956046E-001	4.652365957858216E-001	2.685429932160332E+001
-5.1858574E-001	4.707863911158513E-001	2.687249932114355E+001
-5.1760644E-001	4.798352689970642E-001	2.689059932068631E+001
-5.1656073E-001	4.900641120277420E-001	2.690879932022654E+001
-5.1557153E-001	4.819053299191252E-001	2.692699931976676E+001
-5.1457977E-001	4.829344529192907E-001	2.694519931930699E+001
-5.1354003E-001	4.885346274970601E-001	2.696339931884722E+001
-5.1256245E-001	4.943007255188849E-001	2.698159931838745E+001
-5.1156908E-001	4.819574242912070E-001	2.699979931792768E+001
-5.1054353E-001	4.825544484311761E-001	2.701799931746791E+001
-5.0955349E-001	4.785393404195140E-001	2.703619931700814E+001
-5.0854272E-001	4.853794639297764E-001	2.705429931655090E+001
-5.0757104E-001	4.868783965212439E-001	2.707249931609113E+001
-5.0654709E-001	4.730638927552944E-001	2.709059931563388E+001
-5.0554973E-001	4.619968594631132E-001	2.710879931517411E+001
-5.0457966E-001	4.706163717081724E-001	2.712699931471434E+001
-5.0356621E-001	4.764653501611944E-001	2.714519931425457E+001
-5.0257057E-001	4.785110281405558E-001	2.716339931379480E+001
-5.0155479E-001	4.696960946442799E-001	2.718159931333503E+001
-5.0057793E-001	4.697711184530000E-001	2.719979931287526E+001
-4.9953485E-001	4.749833857299928E-001	2.721799931241549E+001
-4.9856561E-001	4.657865741755822E-001	2.723619931195572E+001
-4.9754295E-001	4.642094666264778E-001	2.725429931149847E+001
-4.9655113E-001	4.570595430175741E-001	2.727249931103870E+001
-4.9557453E-001	4.712109457531088E-001	2.729059931058146E+001
-4.9455610E-001	4.721190166023623E-001	2.730879931012169E+001
-4.9357462E-001	4.683618033974897E-001	2.732699930966191E+001
-4.9258924E-001	4.803312632982131E-001	2.734519930920214E+001
-4.9155945E-001	4.781798966263051E-001	2.736339930874237E+001
-4.9057248E-001	4.738344869837614E-001	2.738159930828260E+001
-4.8954490E-001	4.593496704655813E-001	2.739979930782283E+001
-4.8855042E-001	4.338248531129656E-001	2.741799930736306E+001
-4.8755375E-001	4.318562456656524E-001	2.743619930690329E+001
-4.8575568E-001	4.324190163787591E-001	2.746979930605448E+001
-4.8382169E-001	4.378555333900565E-001	2.750339930520568E+001
-4.8282397E-001	4.107619847398167E-001	2.752159930474591E+001
-4.8183474E-001	4.148561296643831E-001	2.753979930428613E+001
-4.8080903E-001	4.369336912431208E-001	2.755799930382636E+001
-4.7983927E-001	4.261944873269842E-001	2.757619930336659E+001
-4.7885820E-001	4.199597428403345E-001	2.759429930290935E+001
-4.7779855E-001	4.031228525449091E-001	2.761249930244958E+001
-4.7684550E-001	4.015298901795896E-001	2.763059930199233E+001
-4.7583237E-001	4.018482144842510E-001	2.764879930153256E+001
-4.7476664E-001	4.032569990368424E-001	2.766699930107279E+001
-4.7388753E-001	4.067768630685231E-001	2.768519930061302E+001
-4.7283879E-001	4.035045284403083E-001	2.770339930015325E+001
-4.7188008E-001	3.954670867223928E-001	2.772159929969348E+001
-4.7086081E-001	3.986720773470944E-001	2.773979929923371E+001
-4.6988595E-001	3.988353361614152E-001	2.775799929877394E+001
-4.6883720E-001	3.930598105269878E-001	2.777619929831417E+001
-4.6788284E-001	3.854555488955005E-001	2.779429929785692E+001
-4.6682739E-001	3.862104835621087E-001	2.781249929739715E+001
-4.6586931E-001	3.996963495013827E-001	2.783059929693991E+001
-4.6484560E-001	4.074140073299954E-001	2.784879929648014E+001
-4.6390462E-001	4.053288783628224E-001	2.786699929602037E+001
-4.6295771E-001	4.145636508229948E-001	2.788519929556060E+001
-4.6182701E-001	3.954098484865054E-001	2.790339929510083E+001
-4.6084082E-001	4.040207923628483E-001	2.792159929464106E+001
-4.5987645E-001	4.007672934236413E-001	2.793979929418128E+001
-4.5886359E-001	4.125411814703352E-001	2.795799929372151E+001
-4.5785701E-001	4.375489724050401E-001	2.797619929326174E+001
-4.5682260E-001	4.627232465973510E-001	2.799429929280450E+001
-4.5585528E-001	4.695579113231769E-001	2.801249929234473E+001
-4.5484555E-001	4.564614589530525E-001	2.803059929188748E+001
-4.5386800E-001	4.404670317021273E-001	2.804879929142771E+001
-4.5289481E-001	4.380990902245867E-001	2.806699929096794E+001
-4.5185402E-001	4.437378415326809E-001	2.808519929050817E+001
-4.5086932E-001	4.409615571281282E-001	2.810339929004840E+001
-4.4986540E-001	4.344521872562979E-001	2.812159928958863E+001
-4.4883171E-001	4.313731671447254E-001	2.813979928912886E+001
-4.4786078E-001	4.065354508620396E-001	2.815799928866909E+001
-4.4684184E-001	4.000876974087300E-001	2.817619928820932E+001
-4.4583669E-001	4.175394013535563E-001	2.819429928775207E+001
-4.4487143E-001	4.075006046734853E-001	2.821249928729230E+001
-4.4390580E-001	4.251678211694001E-001	2.823059928683506E+001
-4.4284615E-001	4.315979917249759E-001	2.824879928637529E+001
-4.4187227E-001	4.377723571253807E-001	2.826699928591552E+001
-4.4089100E-001	4.483957181775535E-001	2.828519928545575E+001
-4.3986741E-001	4.450621968078461E-001	2.830339928499598E+001
-4.3886974E-001	4.346907084342111E-001	2.832159928453621E+001
-4.3784562E-001	4.290948305721978E-001	2.833979928407643E+001
-4.3686879E-001	4.145016791719209E-001	2.835799928361666E+001
-4.3590730E-001	4.114707961349131E-001	2.837619928315689E+001
-4.3480614E-001	4.332894863514820E-001	2.839429928269965E+001
-4.3380803E-001	4.306212940977687E-001	2.841249928223988E+001
-4.3283013E-001	4.148094492362500E-001	2.843059928178263E+001
-4.3181950E-001	4.211054913858643E-001	2.844879928132286E+001
-4.3082470E-001	4.140926937708955E-001	2.846699928086309E+001
-4.2981449E-001	3.949374154187391E-001	2.848519928040332E+001
-4.2879316E-001	3.821705317499537E-001	2.850339927994355E+001
-4.2784780E-001	3.905940188730987E-001	2.852159927948378E+001
-4.2684528E-001	3.781659209010453E-001	2.853979927902401E+001
-4.2584279E-001	3.852388831514235E-001	2.855799927856424E+001
-4.2485940E-001	3.942554584091039E-001	2.857619927810447E+001
-4.2386699E-001	4.024088218887663E-001	2.859439927764470E+001
-4.2286873E-001	3.965494214488130E-001	2.861249927718745E+001
-4.2186955E-001	3.936932707331886E-001	2.863069927672768E+001
-4.2089573E-001	3.860085218542872E-001	2.864879927627044E+001
-4.1985288E-001	3.874166842493261E-001	2.866699927581067E+001
-4.1887802E-001	4.027423089847169E-001	2.868519927535090E+001
-4.1788331E-001	3.812778494173159E-001	2.870339927489113E+001
-4.1687170E-001	3.698143449339364E-001	2.872159927443136E+001
-4.1588375E-001	3.665902447546037E-001	2.873979927397158E+001
-4.1484478E-001	3.405157745838530E-001	2.875799927351181E+001
-4.1386211E-001	3.152579901183432E-001	2.877619927305204E+001
-4.1288927E-001	3.392370574846408E-001	2.879439927259227E+001
-4.1184777E-001	3.347183952889896E-001	2.881249927213503E+001
-4.1086128E-001	3.486249491572382E-001	2.883069927167526E+001
-4.0988585E-001	3.509049355075140E-001	2.884879927121801E+001
-4.0884456E-001	3.606937785735131E-001	2.886699927075824E+001
-4.0786034E-001	3.654881671922876E-001	2.888519927029847E+001
-4.0680951E-001	3.675564098694331E-001	2.890339926983870E+001
-4.0578631E-001	3.388911902768221E-001	2.892159926937893E+001
-4.0490264E-001	3.395030877382572E-001	2.893979926891916E+001
-4.0386325E-001	3.523649892849259E-001	2.895799926845939E+001
-4.0289825E-001	3.473237293692879E-001	2.897619926799962E+001
-4.0188116E-001	3.528343032295291E-001	2.899339926756511E+001
-4.0148017E-001	3.470279971758519E-001	2.900219926734280E+001