Ewe/V	<I>/mA	time/s	
-4.0579519E-001	1.667216658592224E+000	0.000000000000000E+000
-4.0634161E-001	1.545961064183050E+000	1.099999972211663E-002
-4.0733653E-001	1.331878203174316E+000	3.099999921687413E-002
-4.0833041E-001	1.208999481776530E+000	5.099999871163163E-002
-4.0938157E-001	1.086814868781302E+000	7.099999820638914E-002
-4.1034475E-001	9.952204658442945E-001	9.099999770114664E-002
-4.1137472E-001	9.302965076122867E-001	1.109999971959041E-001
-4.1235802E-001	8.373216397335965E-001	1.309999966906616E-001
-4.1332856E-001	8.341483248190755E-001	1.509999961854192E-001
-4.1438296E-001	7.755320918642816E-001	1.709999956801767E-001
-4.1536841E-001	7.613127600505116E-001	1.909999951749342E-001
-4.1631240E-001	7.315873462292903E-001	2.109999946696917E-001
-4.1736040E-001	6.901402656092426E-001	2.309999941644492E-001
-4.1836593E-001	6.555626003796036E-001	2.509999936592067E-001
-4.1935143E-001	6.168047727810029E-001	2.709999931539642E-001
-4.2035696E-001	5.930497062185596E-001	2.909999926487217E-001
-4.2137101E-001	5.841692293890652E-001	3.109999921434792E-001
-4.2237869E-001	5.731302968019412E-001	3.309999916382367E-001
-4.2334577E-001	5.655514821824106E-001	3.509999911329942E-001
-4.2438093E-001	5.443705313890788E-001	3.709999906277517E-001
-4.2534381E-001	5.288752792205242E-001	3.910999901199830E-001
-4.2637074E-001	5.327867665795445E-001	4.110999896147405E-001
-4.2736125E-001	5.265393787070569E-001	4.311999891069718E-001
-4.2838249E-001	5.102950166910869E-001	4.511999886017293E-001
-4.2935088E-001	5.110854988193365E-001	4.711999880964868E-001
-4.3037659E-001	5.064496583719222E-001	4.911999875912443E-001
-4.3137684E-001	4.842127816130706E-001	5.111999870860018E-001
-4.3232939E-001	4.668440281982633E-001	5.311999865807593E-001
-4.3340182E-001	4.598085832678613E-001	5.511999860755168E-001
-4.3439677E-001	4.458648205165634E-001	5.711999855702743E-001
-4.3538004E-001	4.336688816547394E-001	5.911999850650318E-001
-4.3788555E-001	4.153687850246950E-001	6.411999838019256E-001
-4.3890488E-001	4.037180191112886E-001	6.611999832966831E-001
-4.3989342E-001	3.975278546568006E-001	6.811999827914406E-001
-4.4086608E-001	4.008081498193667E-001	7.011999822861981E-001
-4.4189936E-001	3.977623945360800E-001	7.211999817809556E-001
-4.4284758E-001	3.829968228884453E-001	7.411999812757131E-001
-4.4385844E-001	3.726056816780746E-001	7.611999807704706E-001
-4.4486400E-001	3.694169098097415E-001	7.811999802652281E-001
-4.4588017E-001	3.860105255411750E-001	8.011999797599856E-001
-4.4687417E-001	3.916379535415520E-001	8.211999792547431E-001
-4.4789138E-001	3.872722968355646E-001	8.411999787495006E-001
-4.4888738E-001	3.844305304293016E-001	8.611999782442581E-001
-4.4988549E-001	3.677221869584177E-001	8.811999777390156E-001
-4.5086777E-001	3.587575909267700E-001	9.011999772337731E-001
-4.5187438E-001	3.696670739963235E-001	9.211999767285306E-001
-4.5290431E-001	3.719421876853137E-001	9.411999762232881E-001
-4.5385262E-001	3.676705355497293E-001	9.611999757180456E-001
-4.5483908E-001	3.641640334648812E-001	9.811999752128031E-001
-4.5581186E-001	3.599403983809868E-001	1.001199974707561E+000
-4.5685029E-001	3.434092821553350E-001	1.021199974202318E+000
-4.5786536E-001	3.347458137302777E-001	1.041199973697076E+000
-4.5885712E-001	3.140202704299666E-001	1.061199973191833E+000
-4.5985112E-001	3.016067723381437E-001	1.081199972686591E+000
-4.6086407E-001	2.963905125183786E-001	1.101199972181348E+000
-4.6184415E-001	2.926774998712895E-001	1.121199971676106E+000
-4.6282741E-001	3.020605436629717E-001	1.141199971170863E+000
-4.6390939E-001	3.096373140967148E-001	1.161199970665621E+000
-4.6491501E-001	3.101167891485010E-001	1.181199970160378E+000
-4.6585053E-001	3.030642060976900E-001	1.201199969655136E+000
-4.6684441E-001	3.051438399642303E-001	1.221199969149893E+000
-4.6788180E-001	3.056504451669761E-001	1.241199968644651E+000
-4.6889383E-001	3.003867525969537E-001	1.261199968139408E+000
-4.6988451E-001	3.058419533125654E-001	1.281199967634166E+000
-4.7086141E-001	3.174378376247171E-001	1.301199967128923E+000
-4.7190195E-001	3.189053579440566E-001	1.321199966623681E+000
-4.7284389E-001	3.121982562976582E-001	1.341199966118438E+000
-4.7389939E-001	2.913841636747960E-001	1.361199965613196E+000
-4.7484973E-001	2.880457731791672E-001	1.381199965107953E+000
-4.7590303E-001	2.858909882553338E-001	1.401199964602711E+000
-4.7686931E-001	2.912023542448878E-001	1.421199964097468E+000
-4.7782832E-001	3.023012682226387E-001	1.441199963592226E+000
-4.7883597E-001	2.931984883163965E-001	1.461199963086983E+000
-4.7982031E-001	2.789995291063354E-001	1.481199962581741E+000
-4.8086619E-001	2.687240037808412E-001	1.501199962076498E+000
-4.8183995E-001	2.727133425780472E-001	1.521199961571256E+000
-4.8282751E-001	2.717266267993379E-001	1.541199961066013E+000
-4.8387337E-001	2.809493629675783E-001	1.561199960560771E+000
-4.8483756E-001	2.764155095857044E-001	1.581199960055528E+000
-4.8588446E-001	2.741795515952017E-001	1.601199959550286E+000
-4.8684341E-001	2.803436315928902E-001	1.621199959045043E+000
-4.8787123E-001	2.701497423307360E-001	1.641199958539801E+000
-4.8888534E-001	2.692179691512145E-001	1.661199958034558E+000
-4.8986965E-001	2.536781695930082E-001	1.681199957529316E+000
-4.9086031E-001	2.534242911626494E-001	1.701199957024073E+000
-4.9185649E-001	2.551395917156094E-001	1.721199956518831E+000
-4.9286520E-001	2.563933325258807E-001	1.741199956013588E+000
-4.9382302E-001	2.512419404099795E-001	1.761199955508346E+000
-4.9483168E-001	2.519050800086313E-001	1.781199955003103E+000
-4.9581936E-001	2.521200067260194E-001	1.801199954497861E+000
-4.9686414E-001	2.475478219566881E-001	1.821199953992618E+000
-4.9782512E-001	2.457284391598975E-001	1.841199953487376E+000
-4.9887100E-001	2.393819449935108E-001	1.861199952982133E+000
-4.9985638E-001	2.333660737559619E-001	1.881199952476891E+000
-5.0089920E-001	2.353343884331296E-001	1.901199951971648E+000
-5.0189728E-001	2.329206801821586E-001	1.921199951466406E+000
-5.0287002E-001	2.341488274849131E-001	1.941199950961163E+000
-5.0385535E-001	2.262678230957453E-001	1.961199950455921E+000
-5.0488859E-001	2.230206876993187E-001	1.981199949950678E+000
-5.0589305E-001	2.265798420541825E-001	2.001199949445436E+000
-5.0686783E-001	2.299073687366509E-001	2.021199948940193E+000
-5.0787020E-001	2.234285361676791E-001	2.041199948434951E+000
-5.0888109E-001	2.019949130739822E-001	2.061199947929708E+000
-5.0984430E-001	2.020034908006594E-001	2.081199947424466E+000
-5.1085943E-001	2.009335647130186E-001	2.101199946919223E+000
-5.1194024E-001	2.045342285548233E-001	2.121199946413981E+000
-5.1290333E-001	2.147324539772756E-001	2.141199945908738E+000
-5.1386344E-001	2.132415217735502E-001	2.161199945403496E+000
-5.1487744E-001	2.050509005008892E-001	2.181199944898253E+000
-5.1586705E-001	1.983586486765283E-001	2.201199944393011E+000
-5.1690447E-001	1.936953005173976E-001	2.221199943887768E+000
-5.1789623E-001	1.879988624455625E-001	2.241199943382526E+000
-5.1891142E-001	1.806012305638038E-001	2.261199942877283E+000
-5.1988196E-001	1.765225821097078E-001	2.281199942372041E+000
-5.2090234E-001	1.801239567964035E-001	2.301199941866798E+000
-5.2192485E-001	1.791004087750087E-001	2.321199941361556E+000
-5.2291137E-001	1.798393339850008E-001	2.341199940856313E+000
-5.2390635E-001	1.798100053953637E-001	2.361199940351071E+000
-5.2492255E-001	1.786830131378443E-001	2.381199939845828E+000
-5.2584213E-001	1.839095084255353E-001	2.401199939340586E+000
-5.2690607E-001	1.853411686218664E-001	2.421199938835343E+000
-5.2790534E-001	1.883460975691884E-001	2.441199938330101E+000
-5.2882493E-001	1.936868127021524E-001	2.461199937824858E+000
-5.2987081E-001	1.922991410311726E-001	2.481199937319616E+000
-5.3088909E-001	1.846782975674921E-001	2.501199936814373E+000
-5.3186291E-001	1.833715528999971E-001	2.521199936309131E+000
-5.3286737E-001	1.824836718151351E-001	2.541199935803888E+000
-5.3388560E-001	1.794870550511409E-001	2.561199935298646E+000
-5.3485405E-001	1.751287254996390E-001	2.581199934793403E+000
-5.3584474E-001	1.750100887147712E-001	2.601199934288161E+000
-5.3687698E-001	1.764096953104146E-001	2.621199933782918E+000
-5.3789520E-001	1.737196777507466E-001	2.641199933277676E+000
-5.3886682E-001	1.781595353839098E-001	2.661199932772433E+000
-5.3988087E-001	1.788681775797170E-001	2.681199932267191E+000
-5.4092366E-001	1.828823425393149E-001	2.701199931761948E+000
-5.4196519E-001	1.815748005174096E-001	2.721199931256706E+000
-5.4291880E-001	1.791885582885393E-001	2.741199930751463E+000
-5.4388511E-001	1.833776440988832E-001	2.761199930246221E+000
-5.4490656E-001	1.829099006071275E-001	2.781199929740978E+000
-5.4588574E-001	1.755789762440454E-001	2.801199929235736E+000
-5.4690611E-001	1.748358893285819E-001	2.821199928730493E+000
-5.4790002E-001	1.745219352758591E-001	2.841199928225251E+000
-5.4893315E-001	1.762837111406643E-001	2.861199927720008E+000
-5.4991221E-001	1.774807696929204E-001	2.881199927214766E+000
-5.5092734E-001	1.661407923093066E-001	2.901199926709523E+000
-5.5193287E-001	1.731922191490112E-001	2.921199926204281E+000
-5.5288428E-001	1.811321347098183E-001	2.941199925699038E+000
-5.5390477E-001	1.805771170442718E-001	2.961199925193796E+000
-5.5492204E-001	1.803538899791119E-001	2.981199924688553E+000
-5.5588198E-001	1.791422827841930E-001	3.001199924183311E+000
-5.5690557E-001	1.852385217918913E-001	3.021199923678068E+000
-5.5786866E-001	1.875613295705996E-001	3.041199923172826E+000
-5.5889130E-001	1.926561082299383E-001	3.061199922667583E+000
-5.5993605E-001	1.867564040779455E-001	3.081199922162341E+000
-5.6086528E-001	1.833963740306594E-001	3.101199921657098E+000
-5.6190050E-001	1.792511089911897E-001	3.121199921151856E+000
-5.6292951E-001	1.759268488321042E-001	3.141199920646613E+000
-5.6387991E-001	1.653887878249711E-001	3.161199920141371E+000
-5.6485999E-001	1.568701771062084E-001	3.181199919636128E+000
-5.6585383E-001	1.622306867243930E-001	3.201199919130886E+000
-5.6688702E-001	1.586500600937550E-001	3.221199918625643E+000
-5.6785345E-001	1.537513891881752E-001	3.241199918120401E+000
-5.6887484E-001	1.513438684244952E-001	3.261199917615158E+000
-5.6983274E-001	1.451910838821080E-001	3.281199917109916E+000
-5.7089341E-001	1.372169827809560E-001	3.301199916604673E+000
-5.7181203E-001	1.395900515166835E-001	3.321199916099431E+000
-5.7282716E-001	1.357251667262369E-001	3.341199915594189E+000
-5.7385170E-001	1.311566929798573E-001	3.361199915088946E+000
-5.7485414E-001	1.346637167476331E-001	3.381199914583704E+000
-5.7587039E-001	1.345561309070852E-001	3.401199914078461E+000
-5.7685900E-001	1.304118437433823E-001	3.421199913573219E+000
-5.7794303E-001	1.246461401978094E-001	3.441199913067976E+000
-5.7886153E-001	1.186309015805215E-001	3.461199912562734E+000
-5.7988942E-001	1.165509362084176E-001	3.481199912057491E+000
-5.8090878E-001	1.125378280347733E-001	3.501199911552249E+000
-5.8186138E-001	1.131669595035628E-001	3.521199911047006E+000
-5.8289659E-001	1.164356565568601E-001	3.541199910541764E+000
-5.8386189E-001	1.170737101929262E-001	3.561199910036521E+000
-5.8485466E-001	1.198009945154710E-001	3.581199909531279E+000
-5.8587414E-001	1.273516164575188E-001	3.601199909026036E+000
-5.8688819E-001	1.322612458219135E-001	3.621199908520794E+000
-5.8787668E-001	1.338685253350476E-001	3.641199908015551E+000
-5.8890033E-001	1.307084745882707E-001	3.661199907510309E+000
-5.8986771E-001	1.265949183919777E-001	3.681199907005066E+000
-5.9090090E-001	1.314843320675818E-001	3.701199906499824E+000
-5.9187144E-001	1.265915692783892E-001	3.721199905994581E+000
-5.9284836E-001	1.291062358327004E-001	3.741199905489339E+000
-5.9389102E-001	1.259301108334006E-001	3.761199904984096E+000
-5.9486264E-001	1.230763217059170E-001	3.781199904478854E+000
-5.9587145E-001	1.209254296845756E-001	3.801199903973611E+000
-5.9687483E-001	1.219669136529170E-001	3.821199903468369E+000
-5.9790379E-001	1.173653939687129E-001	3.841199902963126E+000
-5.9885526E-001	1.181385161406883E-001	3.861199902457884E+000
-5.9989381E-001	1.158423024009814E-001	3.881199901952641E+000
-6.0086530E-001	1.095411994416890E-001	3.901199901447399E+000
-6.0191011E-001	1.112687929805058E-001	3.921199900942156E+000
-6.0284352E-001	1.134832917466864E-001	3.941199900436914E+000
-6.0388738E-001	1.066881188113867E-001	3.961199899931671E+000
-6.0487384E-001	1.056989337796244E-001	3.981199899426429E+000
-6.0583591E-001	1.062837227946151E-001	4.001199898921186E+000
-6.0685843E-001	1.073281188210888E-001	4.021199898415944E+000
-6.0785550E-001	1.047064753883108E-001	4.041199897910701E+000
-6.0883039E-001	1.043335243205854E-001	4.061199897405459E+000
-6.0980833E-001	1.055574201875267E-001	4.081199896900216E+000
-6.1085951E-001	1.097757350330033E-001	4.101199896394974E+000
-6.1183006E-001	1.100394164030956E-001	4.121199895889731E+000
-6.1284524E-001	1.068934999186442E-001	4.141199895384489E+000
-6.1386138E-001	1.083279915554967E-001	4.161199894879246E+000
-6.1484569E-001	1.089934335193702E-001	4.181199894374004E+000
-6.1584598E-001	1.082694260856241E-001	4.201199893868761E+000
-6.1691737E-001	1.078565417685442E-001	4.221199893363519E+000
-6.1787951E-001	1.077703256612752E-001	4.241199892858276E+000
-6.1887443E-001	1.064800016142223E-001	4.261199892353034E+000
-6.1987466E-001	1.048411902091988E-001	4.281199891847791E+000
-6.2086427E-001	1.004987630553338E-001	4.301199891342549E+000
-6.2186140E-001	1.034934430046834E-001	4.321199890837306E+000
-6.2280548E-001	1.106477915309374E-001	4.341199890332064E+000
-6.2387460E-001	1.070703568790736E-001	4.361199889826821E+000
-6.2483883E-001	1.045057819897519E-001	4.381199889321579E+000
-6.2586778E-001	1.076516004719047E-001	4.401199888816336E+000
-6.2688076E-001	1.089938749080630E-001	4.421199888311094E+000
-6.2785023E-001	1.060976836015471E-001	4.441199887805851E+000
-6.2890357E-001	1.048758160710956E-001	4.461199887300609E+000
-6.2989318E-001	1.074668017099614E-001	4.481199886795366E+000
-6.3084471E-001	1.059477748543336E-001	4.501199886290124E+000
-6.3183963E-001	1.037733809660293E-001	4.521199885784881E+000
-6.3283032E-001	1.071895153598034E-001	4.541199885279639E+000
-6.3387203E-001	1.041827297497850E-001	4.561199884774396E+000
-6.3486809E-001	1.026714717930499E-001	4.581199884269154E+000
-6.3587999E-001	1.031257914211086E-001	4.601199883763911E+000
-6.3686752E-001	1.037356640768446E-001	4.621199883258669E+000
-6.3787621E-001	1.043300732013048E-001	4.641199882753426E+000
-6.3887018E-001	1.041460751827499E-001	4.661199882248184E+000
-6.3988107E-001	9.848664700985013E-002	4.681199881742941E+000
-6.4088345E-001	9.885324035227949E-002	4.701199881237699E+000
-6.4186454E-001	9.891630958170761E-002	4.721199880732456E+000
-6.4286906E-001	9.989745608375733E-002	4.741199880227214E+000
-6.4386088E-001	9.859520685212364E-002	4.761199879721971E+000
-6.4484739E-001	9.957812434165847E-002	4.781199879216729E+000
-6.4584237E-001	9.860933601157770E-002	4.801199878711486E+000
-6.4684045E-001	9.706593745310466E-002	4.821199878206244E+000
-6.4786613E-001	9.833903308026470E-002	4.841199877701001E+000
-6.4886230E-001	9.876507551719788E-002	4.861199877195759E+000
-6.4984977E-001	1.013153409585357E-001	4.881199876690516E+000
-6.5086699E-001	1.052886141826295E-001	4.901199876185274E+000
-6.5183431E-001	1.045047149333795E-001	4.921199875680031E+000
-6.5285057E-001	1.037807161790423E-001	4.941199875174789E+000
-6.5383714E-001	9.879573219222970E-002	4.961199874669546E+000
-6.5483201E-001	9.734101319918409E-002	4.981199874164304E+000
-6.5586406E-001	9.705771586676654E-002	5.001199873659061E+000
-6.5686959E-001	9.702202665438464E-002	5.021199873153819E+000
-6.5784132E-001	9.851322983417488E-002	5.041199872648576E+000
-6.5890414E-001	9.756494110398428E-002	5.061199872143334E+000
-6.5984285E-001	9.584283112781133E-002	5.081199871638091E+000
-6.6085583E-001	9.568047390914458E-002	5.101199871132849E+000
-6.6183817E-001	9.569539964043872E-002	5.121199870627606E+000
-6.6282147E-001	9.581924147076099E-002	5.141199870122364E+000
-6.6388321E-001	9.389952590896036E-002	5.161199869617121E+000
-6.6488552E-001	9.689623621913279E-002	5.181199869111879E+000
-6.6589749E-001	9.851331766306726E-002	5.201199868606636E+000
-6.6684800E-001	1.046278595264689E-001	5.221199868101394E+000
-6.6788322E-001	1.064119837958264E-001	5.241199867596151E+000
-6.6887182E-001	1.068327256167929E-001	5.261199867090909E+000
-6.6986138E-001	1.080196153618300E-001	5.281199866585666E+000
-6.7084163E-001	1.063143680092052E-001	5.301199866080424E+000
-6.7186946E-001	1.064265599707145E-001	5.321199865575181E+000
-6.7285907E-001	1.050270490555299E-001	5.341199865069939E+000
-6.7387420E-001	1.012151702048466E-001	5.361199864564696E+000
-6.7481929E-001	9.566042040629963E-002	5.381199864059454E+000
-6.7580473E-001	9.297747479932816E-002	5.401199863554211E+000
-6.7685384E-001	9.394395654089749E-002	5.421199863048969E+000
-6.7782438E-001	9.851853236452568E-002	5.441199862543726E+000
-6.7889243E-001	9.532411919725647E-002	5.461199862038484E+000
-6.7985034E-001	9.408060986445177E-002	5.481199861533241E+000
-6.8086016E-001	9.490558372474189E-002	5.501199861027999E+000
-6.8185729E-001	9.028658049000016E-002	5.521199860522756E+000
-6.8281823E-001	9.018419368011465E-002	5.541199860017514E+000
-6.8382484E-001	8.654227879984952E-002	5.561199859512271E+000
-6.8483371E-001	8.539867289235015E-002	5.581199859007029E+000
-6.8583179E-001	8.178714468118042E-002	5.601199858501786E+000
-6.8685746E-001	8.095590172645972E-002	5.621199857996544E+000
-6.8786192E-001	7.981689754200905E-002	5.641199857491301E+000
-6.8882406E-001	7.894059727873870E-002	5.661199856986059E+000
-6.8983924E-001	7.939473549938875E-002	5.681199856480816E+000
-6.9081718E-001	7.951752166910525E-002	5.701199855975574E+000
-6.9185883E-001	7.910357709948213E-002	5.721199855470331E+000
-6.9284320E-001	8.050441669507202E-002	5.741199854965089E+000
-6.9387949E-001	8.090483978675278E-002	5.761199854459846E+000
-6.9483739E-001	8.260592663039779E-002	5.781199853954604E+000
-6.9590020E-001	8.107294746312421E-002	5.801199853449361E+000
-6.9686967E-001	8.210683500187299E-002	5.821199852944119E+000
-6.9787210E-001	8.161550586292965E-002	5.841199852438876E+000
-6.9883001E-001	8.041290083848363E-002	5.861199851933634E+000
-6.9984931E-001	8.190153779772458E-002	5.881199851428391E+000
-7.0086652E-001	8.302472803431260E-002	5.901199850923149E+000
-7.0187205E-001	8.431046225854888E-002	5.921199850417906E+000
-7.0287561E-001	8.435410329709886E-002	5.941199849912664E+000
-7.0386100E-001	8.387028486079851E-002	5.961199849407421E+000
-7.0483369E-001	8.250602436277799E-002	5.981199848902179E+000
-7.0588690E-001	8.430551745954759E-002	6.001199848396936E+000
-7.0685953E-001	8.684898066308566E-002	6.021199847891694E+000
-7.0785993E-001	8.541687372942564E-002	6.041199847386451E+000
-7.0884645E-001	8.554708181570023E-002	6.061199846881209E+000
-7.0984352E-001	8.352471223851254E-002	6.081199846375966E+000
-7.1086168E-001	8.212034842775506E-002	6.101199845870724E+000
-7.1188867E-001	8.139564003795430E-002	6.121199845365481E+000
-7.1285492E-001	7.852320942199953E-002	6.141199844860239E+000
-7.1382755E-001	7.909023954481298E-002	6.161199844354996E+000
-7.1485323E-001	7.905605886157430E-002	6.181199843849754E+000
-7.1582812E-001	7.885774214648555E-002	6.201199843344511E+000
-7.1687078E-001	7.879316676149362E-002	6.221199842839269E+000
-7.1789759E-001	7.918882395218427E-002	6.241199842334026E+000
-7.1887136E-001	7.620792260988518E-002	6.261199841828784E+000
-7.1986413E-001	7.772827597283261E-002	6.281199841323541E+000
-7.2090584E-001	7.681417728437956E-002	6.301199840818299E+000
-7.2188169E-001	7.593072377817955E-002	6.321199840313056E+000
-7.2292542E-001	7.489594945865163E-002	6.341199839807814E+000
-7.2389275E-001	7.350404276641931E-002	6.361199839302571E+000
-7.2485501E-001	7.263878934059531E-002	6.381199838797329E+000
-7.2586048E-001	7.227634514371539E-002	6.401199838292087E+000
-7.2690743E-001	7.119360825486742E-002	6.421199837786844E+000
-7.2782701E-001	7.296819935112986E-002	6.441199837281602E+000
-7.2884643E-001	7.782235656890818E-002	6.461199836776359E+000
-7.2988808E-001	7.830616943667557E-002	6.481199836271117E+000
-7.3082685E-001	7.796298610951979E-002	6.501199835765874E+000
-7.3185146E-001	7.569460008138196E-002	6.521199835260632E+000
-7.3288029E-001	7.453598324597510E-002	6.541199834755389E+000
-7.3388380E-001	7.301447980959597E-002	6.561199834250147E+000
-7.3488522E-001	7.237068543003662E-002	6.581199833744904E+000
-7.3587483E-001	7.399377922087741E-002	6.601199833239662E+000
-7.3683476E-001	6.910252060172062E-002	6.621199832734419E+000
-7.3789233E-001	6.566332791569751E-002	6.641199832229177E+000
-7.3885548E-001	6.490628407078108E-002	6.661199831723934E+000
-7.3986733E-001	6.358415946467888E-002	6.681199831218692E+000
-7.4085915E-001	6.440162424567286E-002	6.701199830713449E+000
-7.4190921E-001	6.483376339181435E-002	6.721199830208207E+000
-7.4290752E-001	6.412707284713816E-002	6.741199829702964E+000
-7.4393749E-001	6.451734227852701E-002	6.761199829197722E+000
-7.4488139E-001	6.418723079453548E-002	6.781199828692479E+000
-7.4586684E-001	6.198306986415347E-002	6.801199828187237E+000
-7.4691170E-001	6.120845196225388E-002	6.821199827681994E+000
-7.4790883E-001	5.906674563367309E-002	6.841199827176752E+000
-7.4891222E-001	5.785062204490227E-002	6.861199826671509E+000
-7.4988490E-001	6.004736330942251E-002	6.881199826166267E+000
-7.5089365E-001	6.156153412626342E-002	6.901199825661024E+000
-7.5190884E-001	6.197388464998876E-002	6.921199825155782E+000
-7.5286341E-001	5.984816640072199E-002	6.941199824650539E+000
-7.5388068E-001	5.591191098533765E-002	6.961199824145297E+000
-7.5484914E-001	5.940507087507307E-002	6.981199823640054E+000
-7.5589812E-001	5.828541366887896E-002	7.001199823134812E+000
-7.5687408E-001	5.791413703829895E-002	7.021199822629569E+000
-7.5787216E-001	5.667919818531830E-002	7.041199822124327E+000
-7.5885969E-001	5.510372131377361E-002	7.061199821619084E+000
-7.5989389E-001	5.535062016699380E-002	7.081199821113842E+000
-7.6084965E-001	5.704013691865872E-002	7.101199820608599E+000
-7.6185524E-001	6.102356772236039E-002	7.121199820103357E+000
-7.6288730E-001	5.983633037734171E-002	7.141199819598114E+000
-7.6386422E-001	5.735426239294217E-002	7.161199819092872E+000
-7.6485497E-001	5.670543171517151E-002	7.181199818587629E+000
-7.6585424E-001	5.902125146692749E-002	7.201199818082387E+000
-7.6685655E-001	5.858708043039473E-002	7.221199817577144E+000
-7.6782709E-001	5.634846591662335E-002	7.241199817071902E+000
-7.6883477E-001	5.591402791065381E-002	7.261199816566659E+000
-7.6983619E-001	5.609220360121170E-002	7.281199816061417E+000
-7.7086824E-001	5.472573038100059E-002	7.301199815556174E+000
-7.7184516E-001	5.463430507613043E-002	7.321199815050932E+000
-7.7285171E-001	5.582666563956695E-002	7.341199814545689E+000
-7.7388495E-001	5.524638314899601E-002	7.361199814040447E+000
-7.7488524E-001	5.510487205982739E-002	7.381199813535204E+000
-7.7587807E-001	5.339079818158010E-002	7.401199813029962E+000
-7.7687508E-001	5.423555582334927E-002	7.421199812524719E+000
-7.7789450E-001	5.263914468943981E-002	7.441199812019477E+000
-7.7885979E-001	5.394696120573733E-002	7.461199811514234E+000
-7.7985263E-001	5.377647205023101E-002	7.481199811008992E+000
-7.8087199E-001	5.451354961648280E-002	7.501199810503749E+000
-7.8185093E-001	5.382753179098200E-002	7.521199809998507E+000
-7.8284699E-001	5.420543363369601E-002	7.541199809493264E+000
-7.8388238E-001	5.577419395235172E-002	7.561199808988022E+000
-7.8484023E-001	5.496635965795987E-002	7.581199808482779E+000
-7.8590405E-001	5.469578604162184E-002	7.601199807977537E+000
-7.8689897E-001	5.575502446865566E-002	7.621199807472294E+000
-7.8782618E-001	5.423007774839383E-002	7.641199806967052E+000
-7.8884232E-001	5.393971532854883E-002	7.661199806461809E+000
-7.8984571E-001	5.413237646765412E-002	7.681199805956567E+000
-7.9082793E-001	5.301015374910395E-002	7.701199805451324E+000
-7.9187280E-001	5.332808049408611E-002	7.721199804946082E+000
-7.9283065E-001	5.372894629059982E-002	7.741199804440839E+000
-7.9389662E-001	5.491185629701523E-002	7.761199803935597E+000
-7.9485339E-001	5.447008671601195E-002	7.781199803430354E+000
-7.9588544E-001	5.191134399824993E-002	7.801199802925112E+000
-7.9685080E-001	5.228871493212273E-002	7.821199802419869E+000
-7.9787761E-001	5.185763326072568E-002	7.841199801914627E+000
-7.9889160E-001	5.276687850063255E-002	7.861199801409384E+000
-7.9984617E-001	5.419907225101872E-002	7.881199800904142E+000
-8.0084753E-001	5.545185589774815E-002	7.901199800398899E+000
-8.0185747E-001	5.430719394805972E-002	7.921199799893657E+000
-8.0288321E-001	5.483005792808004E-002	7.941199799388414E+000
-8.0381548E-001	5.433457936548325E-002	7.961199798883172E+000
-8.0485612E-001	5.488340983477724E-002	7.981199798377929E+000
-8.0585742E-001	5.473483032094228E-002	8.001199797872687E+000
-8.0680579E-001	5.386913602059296E-002	8.021199797367444E+000
-8.0782825E-001	5.332198209038719E-002	8.041199796862202E+000
-8.0885285E-001	5.414377253489677E-002	8.061199796356959E+000
-8.0984771E-001	5.413732628868378E-002	8.081199795851717E+000
-8.1084710E-001	5.364025730846669E-002	8.101199795346474E+000
-8.1183666E-001	5.323364726629953E-002	8.121199794841232E+000
-8.1288677E-001	5.216725411527401E-002	8.141199794335989E+000
-8.1384152E-001	5.219066143035908E-002	8.161199793830747E+000
-8.1487679E-001	5.248119899058801E-002	8.181199793325504E+000
-8.1583565E-001	5.251512000945208E-002	8.201199792820262E+000
-8.1686348E-001	5.189499929353292E-002	8.221199792315019E+000
-8.1789243E-001	5.152734331851330E-002	8.241199791809777E+000
-8.1889480E-001	4.985505230595455E-002	8.261199791304534E+000
-8.1990892E-001	4.963103423425419E-002	8.281199790799292E+000
-8.2088578E-001	4.870420966310318E-002	8.301199790294049E+000
-8.2186484E-001	4.826712658137322E-002	8.321199789788807E+000
-8.2287145E-001	4.807331362260636E-002	8.341199789283564E+000
-8.2382619E-001	4.798992585468420E-002	8.361199788778322E+000
-8.2486892E-001	4.812879063602959E-002	8.381199788273079E+000
-8.2588923E-001	4.726088679227480E-002	8.401199787767837E+000
-8.2685232E-001	4.531113179594592E-002	8.421199787262594E+000
-8.2860690E-001	4.410586313048626E-002	8.456199786378420E+000
-8.3039838E-001	4.352998585414347E-002	8.491199785494246E+000
-8.3136261E-001	4.150770160615352E-002	8.511199784989003E+000
-8.3237147E-001	4.146166169731369E-002	8.531199784483761E+000
-8.3337802E-001	4.202253219167074E-002	8.551199783978518E+000
-8.3434963E-001	4.188395729417815E-002	8.571199783473276E+000
-8.3541667E-001	4.207732095771161E-002	8.591199782968033E+000
-8.3638412E-001	4.390210682241663E-002	8.611199782462791E+000
-8.3735150E-001	4.335782721561077E-002	8.631199781957548E+000
-8.3836031E-001	4.237077262951061E-002	8.651199781452306E+000
-8.3933932E-001	4.199986143309350E-002	8.671199780947063E+000
-8.4033948E-001	4.036165409747321E-002	8.691199780441821E+000
-8.4135467E-001	4.115105208539827E-002	8.711199779936578E+000
-8.4234220E-001	4.105593928317047E-002	8.731199779431336E+000
-8.4334040E-001	3.947945764068422E-002	8.751199778926093E+000
-8.4437239E-001	3.840636741369979E-002	8.771199778420851E+000
-8.4532917E-001	3.787176427108030E-002	8.791199777915608E+000
-8.4637403E-001	3.790569279549855E-002	8.811199777410366E+000
-8.4735847E-001	3.718710633822608E-002	8.831199776905123E+000
-8.4835660E-001	3.675188404546764E-002	8.851199776399881E+000
-8.4937483E-001	3.520515565307721E-002	8.871199775894638E+000
-8.5037404E-001	3.405102311323083E-002	8.891199775389396E+000
-8.5135734E-001	3.295112046503680E-002	8.911199774884153E+000
-8.5241282E-001	3.305683903616019E-002	8.931199774378911E+000
-8.5337484E-001	3.340483235660952E-002	8.951199773873668E+000
-8.5436654E-001	3.299157588238200E-002	8.971199773368426E+000
-8.5538179E-001	3.255307826718012E-002	8.991199772863183E+000
-8.5637563E-001	3.197164374998662E-002	9.011199772357941E+000
-8.5736954E-001	3.219006275887504E-002	9.031199771852698E+000
-8.5835063E-001	3.175636005794850E-002	9.051199771347456E+000
-8.5941046E-001	3.129499369404393E-002	9.071199770842213E+000
-8.6037254E-001	3.101869610933744E-002	9.091199770336971E+000
-8.6134839E-001	2.981924004497061E-002	9.111199769831728E+000
-8.6235070E-001	2.965792361485198E-002	9.131199769326486E+000
-8.6338598E-001	2.920561296276804E-002	9.151199768821243E+000
-8.6436516E-001	2.943956786960678E-002	9.171199768316001E+000
-8.6535364E-001	2.904291161070838E-002	9.191199767810758E+000
-8.6635387E-001	2.883012689966963E-002	9.211199767305516E+000
-8.6736578E-001	2.800970418643900E-002	9.231199766800273E+000
-8.6834484E-001	2.784398319070336E-002	9.251199766295031E+000
-8.6934417E-001	2.743217278071414E-002	9.271199765789788E+000
-8.7035823E-001	2.726524182556508E-002	9.291199765284546E+000
-8.7133408E-001	2.689486930871181E-002	9.311199764779303E+000
-8.7233853E-001	2.546462730161797E-002	9.331199764274061E+000
-8.7334633E-001	2.532736935892092E-002	9.351199763768818E+000
-8.7438786E-001	2.585142611254326E-002	9.371199763263576E+000
-8.7534994E-001	2.609671054718393E-002	9.391199762758333E+000
-8.7630570E-001	2.574787686333171E-002	9.411199762253091E+000
-8.7731862E-001	2.567923028093191E-002	9.431199761747848E+000
-8.7831581E-001	2.528241699069950E-002	9.451199761242606E+000
-8.7932247E-001	2.433415063488698E-002	9.471199760737363E+000
-8.8031948E-001	2.376469000591899E-002	9.491199760232121E+000
-8.8127410E-001	2.328458783287921E-002	9.511199759726878E+000
-8.8229668E-001	2.286187813539681E-002	9.531199759221636E+000
-8.8332981E-001	2.290691970847551E-002	9.551199758716393E+000
-8.8431203E-001	2.240239715158382E-002	9.571199758211151E+000
-8.8531655E-001	2.171333453346358E-002	9.591199757705908E+000
-8.8632953E-001	2.180495042153374E-002	9.611199757200666E+000
-8.8734680E-001	2.174168192787973E-002	9.631199756695423E+000
-8.8832903E-001	2.143234436840030E-002	9.651199756190181E+000
-8.8934833E-001	2.124829758961119E-002	9.671199755684938E+000
-8.9031577E-001	2.045294661204237E-002	9.691199755179696E+000
-8.9132565E-001	2.005464937570250E-002	9.711199754674453E+000
-8.9235032E-001	1.934616471569627E-002	9.731199754169211E+000
-8.9334410E-001	1.858471779107490E-002	9.751199753663968E+000
-8.9436239E-001	1.839262621716546E-002	9.771199753158726E+000
-8.9534265E-001	1.827867465100202E-002	9.791199752653483E+000
-8.9635032E-001	1.827500868562809E-002	9.811199752148241E+000
-8.9740998E-001	1.801452611915816E-002	9.831199751642998E+000
-8.9831793E-001	1.816037611246829E-002	9.851199751137756E+000
-8.9936584E-001	1.788799769322702E-002	9.871199750632513E+000
-9.0035987E-001	1.798807597757940E-002	9.891199750127271E+000
-9.0131873E-001	1.786838209955016E-002	9.911199749622028E+000
-9.0235180E-001	1.763299107066512E-002	9.931199749116786E+000
-9.0329170E-001	1.776978056942530E-002	9.951199748611543E+000
-9.0435559E-001	1.754089615618196E-002	9.971199748106301E+000
-9.0532506E-001	1.707115180033722E-002	9.991199747601058E+000
-9.0631258E-001	1.662984640926071E-002	1.001119974709582E+001
-9.0735102E-001	1.645410747894654E-002	1.003119974659057E+001
-9.0829724E-001	1.609587826371559E-002	1.005119974608533E+001
-9.0932083E-001	1.583498950316831E-002	1.007119974558009E+001
-9.1033715E-001	1.522785560680656E-002	1.009119974507485E+001
-9.1132134E-001	1.513714882296180E-002	1.011119974456960E+001
-9.1235667E-001	1.468180860117884E-002	1.013119974406436E+001
-9.1333568E-001	1.430051154521714E-002	1.015119974355912E+001
-9.1432756E-001	1.414039785029469E-002	1.017119974305388E+001
-9.1528642E-001	1.398107831321091E-002	1.019119974254863E+001
-9.1628987E-001	1.357228045607271E-002	1.021119974204339E+001
-9.1733468E-001	1.326098179480244E-002	1.023119974153815E+001
-9.1831690E-001	1.304448708025227E-002	1.025119974103291E+001
-9.1924387E-001	1.307172362430722E-002	1.027119974052766E+001
-9.2029196E-001	1.251394769658679E-002	1.029119974002242E+001
-9.2133987E-001	1.217835320777441E-002	1.031119973951718E+001
-9.2236984E-001	1.209178725225180E-002	1.033119973901194E+001
-9.2336273E-001	1.156114166547523E-002	1.035119973850669E+001
-9.2433441E-001	1.147775595907460E-002	1.037119973800145E+001
-9.2537916E-001	1.117953618732925E-002	1.039119973749621E+001
-9.2635715E-001	1.103045210038552E-002	1.041119973699097E+001
-9.2739785E-001	1.109091249883121E-002	1.043119973648572E+001
-9.2837471E-001	1.093219405609291E-002	1.045119973598048E+001
-9.2933893E-001	1.065846326107728E-002	1.047119973547524E+001
-9.3038470E-001	1.047777273278269E-002	1.049119973497000E+001
-9.3137127E-001	1.010020191380243E-002	1.051119973446475E+001
-9.3235773E-001	9.605562441316218E-003	1.053119973395951E+001
-9.3337393E-001	9.259034075108141E-003	1.055119973345427E+001
-9.3437093E-001	8.792301930144408E-003	1.057119973294903E+001
-9.3538082E-001	8.267856039714805E-003	1.059119973244378E+001
-9.3640238E-001	8.159070512596789E-003	1.061119973193854E+001
-9.3735379E-001	7.670745447992691E-003	1.063119973143330E+001
-9.3835080E-001	7.498612479846817E-003	1.065119973092806E+001
-9.3939024E-001	7.268262060986488E-003	1.067119973042281E+001
-9.4038534E-001	6.958587663070330E-003	1.069119972991757E+001
-9.4134957E-001	6.832616341044873E-003	1.071119972941233E+001
-9.4235611E-001	6.568944692440321E-003	1.073119972890709E+001
-9.4335747E-001	5.991952007510310E-003	1.075119972840184E+001
-9.4435978E-001	5.647349227122813E-003	1.077119972789660E+001
-9.4539303E-001	5.350489444632928E-003	1.079119972739136E+001
-9.4635409E-001	5.223131341659214E-003	1.081119972688612E+001
-9.4740200E-001	5.038519239557587E-003	1.083119972638087E+001
-9.4838428E-001	4.758659817727884E-003	1.085119972587563E+001
-9.4938773E-001	4.470931480076025E-003	1.087119972537039E+001
-9.5196426E-001	3.529246782197758E-003	1.092119972410728E+001
-9.5294535E-001	3.214787987518439E-003	1.094119972360204E+001
-9.5390004E-001	3.088707403852232E-003	1.096119972309680E+001
-9.5493746E-001	2.777199676630614E-003	1.098119972259155E+001
-9.5591015E-001	2.507217729038939E-003	1.100119972208631E+001
-9.5690721E-001	2.096275741678262E-003	1.102119972158107E+001
-9.5793080E-001	1.778290195135115E-003	1.104119972107583E+001
-9.5892477E-001	1.459290116246043E-003	1.106119972057058E+001
-9.5992398E-001	1.110296897372288E-003	1.108119972006534E+001
-9.6091032E-001	9.212658292199194E-004	1.110119971956010E+001
-9.6190208E-001	8.603412222025070E-004	1.112119971905486E+001
-9.6292788E-001	6.691516187200073E-004	1.114119971854961E+001
-9.6387196E-001	4.157943100406352E-004	1.116119971804437E+001
-9.6489877E-001	1.552273775121313E-004	1.118119971753913E+001
-9.6590531E-001	-1.437139049076876E-004	1.120119971703389E+001
-9.6693850E-001	-3.923364068643626E-004	1.122119971652864E+001
-9.6789008E-001	-8.018743389281262E-004	1.124119971602340E+001
-9.6887016E-001	-1.037052300337869E-003	1.126119971551816E+001
-9.6990114E-001	-1.226388229042641E-003	1.128119971501292E+001
-9.7092259E-001	-1.459897881027756E-003	1.130119971450767E+001
-9.7191870E-001	-1.705991727148002E-003	1.132119971400243E+001
-9.7296774E-001	-1.970474581058720E-003	1.134119971349719E+001
-9.7392130E-001	-2.123335824863813E-003	1.136119971299195E+001
-9.7493750E-001	-2.329322840725782E-003	1.138119971248670E+001
-9.7594321E-001	-2.466270656643437E-003	1.140119971198146E+001
-9.7695291E-001	-2.626025883121962E-003	1.142119971147622E+001
-9.7793728E-001	-2.965819040077280E-003	1.144119971097098E+001
-9.7894812E-001	-3.369946008711430E-003	1.146119971046573E+001
-9.7990900E-001	-3.510305327937280E-003	1.148119970996049E+001
-9.8093814E-001	-3.752590405484726E-003	1.150119970945525E+001
-9.8193514E-001	-3.987735617960831E-003	1.152119970895001E+001
-9.8294282E-001	-4.190425519482247E-003	1.154119970844476E+001
-9.8390698E-001	-4.458860117867704E-003	1.156119970793952E+001
-9.8493391E-001	-4.699191009826256E-003	1.158119970743428E+001
-9.8587269E-001	-4.945302962975490E-003	1.160119970692904E+001
-9.8691100E-001	-5.160444361536037E-003	1.162119970642379E+001
-9.8791975E-001	-5.367768085205983E-003	1.164119970591855E+001
-9.8890412E-001	-5.598901439952883E-003	1.166119970541331E+001
-9.8989701E-001	-5.803927208439218E-003	1.168119970490807E+001
-9.9091744E-001	-6.017135544324315E-003	1.170119970440282E+001
-9.9191564E-001	-6.173331718552270E-003	1.172119970389758E+001
-9.9285841E-001	-6.342567420587225E-003	1.174119970339234E+001
-9.9389386E-001	-6.507631868670496E-003	1.176119970288710E+001
-9.9490577E-001	-6.678883415588619E-003	1.178119970238185E+001
-9.9588048E-001	-6.826801312854514E-003	1.180119970187661E+001
-9.9687028E-001	-6.955947878547405E-003	1.182119970137137E+001
-9.9788630E-001	-7.098612873556294E-003	1.184119970086613E+001
-9.9889517E-001	-7.228821295332949E-003	1.186119970036088E+001
-9.9988806E-001	-7.376572483028400E-003	1.188119969985564E+001
-1.0009042E+000	-7.503958737490601E-003	1.190119969935040E+001
-1.0019214E+000	-7.611437604080284E-003	1.192119969884516E+001
-1.0029440E+000	-7.736993345234713E-003	1.194119969833991E+001
-1.0039315E+000	-7.857235821979308E-003	1.196119969783467E+001
-1.0048872E+000	-7.988229787669193E-003	1.198119969732943E+001
-1.0059087E+000	-8.118950409374937E-003	1.200119969682419E+001
-1.0068856E+000	-8.220598859123907E-003	1.202119969631894E+001
-1.0079039E+000	-8.345402805490343E-003	1.204119969581370E+001
-1.0089085E+000	-8.471305196710299E-003	1.206119969530846E+001
-1.0099224E+000	-8.617987553103973E-003	1.208119969480322E+001
-1.0109683E+000	-8.759935360608801E-003	1.210119969429797E+001
-1.0119432E+000	-8.867446034855619E-003	1.212119969379273E+001
-1.0128798E+000	-9.032729245114335E-003	1.214119969328749E+001
-1.0138928E+000	-9.186025322479585E-003	1.216119969278225E+001
-1.0148771E+000	-9.375355421474926E-003	1.218119969227700E+001
-1.0159070E+000	-9.553607545159187E-003	1.220119969177176E+001
-1.0169244E+000	-9.711809554978058E-003	1.222119969126652E+001
-1.0178673E+000	-9.914718656444957E-003	1.224119969076128E+001
-1.0188696E+000	-1.009742985964593E-002	1.226119969025604E+001
-1.0198933E+000	-1.028603255124633E-002	1.228119968975079E+001
-1.0208788E+000	-1.052053981240733E-002	1.230119968924555E+001
-1.0226402E+000	-1.092074877730434E-002	1.233619968836138E+001
-1.0243971E+000	-1.097744511288405E-002	1.237119968747720E+001
-1.0253295E+000	-1.122091890849533E-002	1.239119968697196E+001
-1.0263500E+000	-1.144720694396201E-002	1.241119968646672E+001
-1.0273396E+000	-1.179632210066003E-002	1.243119968596147E+001
-1.0283411E+000	-1.208961355263855E-002	1.245119968545623E+001
-1.0293168E+000	-1.230882786815832E-002	1.247119968495099E+001
-1.0302842E+000	-1.260163350687231E-002	1.249119968444575E+001
-1.0313206E+000	-1.298015806241884E-002	1.251119968394050E+001
-1.0322911E+000	-1.342942125160740E-002	1.253119968343526E+001
-1.0332954E+000	-1.383589740726160E-002	1.255119968293002E+001
-1.0342841E+000	-1.417656950959806E-002	1.257119968242478E+001
-1.0353153E+000	-1.450440973308603E-002	1.259119968191953E+001
-1.0362911E+000	-1.495202228155296E-002	1.261119968141429E+001
-1.0372988E+000	-1.542574977874112E-002	1.263119968090905E+001
-1.0383000E+000	-1.586925589395416E-002	1.265119968040381E+001
-1.0392865E+000	-1.630873459766410E-002	1.267119967989856E+001
-1.0402795E+000	-1.686793210845075E-002	1.269119967939332E+001
-1.0413095E+000	-1.754221262591371E-002	1.271119967888808E+001
-1.0422958E+000	-1.826130299337414E-002	1.273119967838284E+001
-1.0432780E+000	-1.897290371804651E-002	1.275119967787759E+001
-1.0443188E+000	-1.965911513576016E-002	1.277119967737235E+001
-1.0452831E+000	-2.070947284098806E-002	1.279119967686711E+001
-1.0463265E+000	-2.175482380617816E-002	1.281119967636187E+001
-1.0473205E+000	-2.296130376796804E-002	1.283119967585662E+001
-1.0483303E+000	-2.415296367447189E-002	1.285119967535138E+001
-1.0493338E+000	-2.552130635174550E-002	1.287119967484614E+001
-1.0503149E+000	-2.853950939930255E-002	1.289119967434090E+001
-1.0513576E+000	-3.146455132324860E-002	1.291119967383565E+001
-1.0523070E+000	-3.521106029964146E-002	1.293119967333041E+001
-1.0533391E+000	-3.898137577279059E-002	1.295119967282517E+001
-1.0543257E+000	-4.319847432068646E-002	1.297119967231993E+001
-1.0553099E+000	-4.889189489121115E-002	1.299119967181468E+001
-1.0563122E+000	-5.676096467909197E-002	1.301119967130944E+001
-1.0572637E+000	-6.952207657741372E-002	1.303119967080420E+001
-1.0590372E+000	-1.016135345780635E-001	1.306619966992002E+001
-1.0608395E+000	-1.342803376028312E-001	1.310119966903585E+001
-1.0618206E+000	-1.602537025982090E-001	1.312119966853061E+001
-1.0628104E+000	-1.887831734752083E-001	1.314119966802537E+001
-1.0638456E+000	-2.239171029456584E-001	1.316119966752012E+001
-1.0648607E+000	-2.605660027151724E-001	1.318119966701488E+001
-1.0658408E+000	-3.024959794193909E-001	1.320119966650964E+001
-1.0668157E+000	-3.536554590747160E-001	1.322119966600440E+001
-1.0678308E+000	-4.166547536539529E-001	1.324119966549915E+001
-1.0688226E+000	-4.794209188678202E-001	1.326119966499391E+001
-1.0698514E+000	-5.503359355756805E-001	1.328119966448867E+001
-1.0708359E+000	-6.372626053376340E-001	1.330119966398343E+001
-1.0718096E+000	-7.148063642800659E-001	1.332119966347818E+001
-1.0727886E+000	-7.983687544862419E-001	1.334119966297294E+001
-1.0738038E+000	-8.908021162884872E-001	1.336119966246770E+001
-1.0748242E+000	-9.890628566241109E-001	1.338119966196246E+001
-1.0766122E+000	-1.177416705301344E+000	1.341619966107828E+001
-1.0783139E+000	-1.348338984159961E+000	1.345119966019411E+001
-1.0793301E+000	-1.453420508859879E+000	1.347119965968886E+001
-1.0803219E+000	-1.563252803352144E+000	1.349119965918362E+001
-1.0813265E+000	-1.671357585220701E+000	1.351119965867838E+001
-1.0823129E+000	-1.790386414155362E+000	1.353119965817314E+001
-1.0833396E+000	-1.909565424857037E+000	1.355119965766789E+001
-1.0843060E+000	-2.019847443741220E+000	1.357119965716265E+001
-1.0853318E+000	-2.126487180797582E+000	1.359119965665741E+001
-1.0863553E+000	-2.234770154373514E+000	1.361119965615217E+001
-1.0872887E+000	-2.341231519563323E+000	1.363119965564692E+001
-1.0883442E+000	-2.450661849851397E+000	1.365119965514168E+001
-1.0893095E+000	-2.554977469353201E+000	1.367119965463644E+001
-1.0903637E+000	-2.657355850976366E+000	1.369119965413120E+001
-1.0913323E+000	-2.764536045491688E+000	1.371119965362595E+001
-1.0923293E+000	-2.867499642901944E+000	1.373119965312071E+001
-1.0933604E+000	-2.970071164891117E+000	1.375119965261547E+001
-1.0943034E+000	-3.068303594365714E+000	1.377119965211023E+001
-1.0953250E+000	-3.169223731590620E+000	1.379119965160498E+001
-1.0962849E+000	-3.268392265463863E+000	1.381119965109974E+001
-1.0973285E+000	-3.365974742298320E+000	1.383119965059450E+001
-1.0983161E+000	-3.464133984512748E+000	1.385119965008926E+001
-1.0993704E+000	-3.562717811101010E+000	1.387119964958401E+001
-1.1003124E+000	-3.660123783060243E+000	1.389119964907877E+001
-1.1013604E+000	-3.759631493439272E+000	1.391119964857353E+001
-1.1023586E+000	-3.856523501169340E+000	1.393119964806829E+001
-1.1033133E+000	-3.950725993762411E+000	1.395119964756304E+001
-1.1043050E+000	-4.046412650909687E+000	1.397119964705780E+001
-1.1053466E+000	-4.145073474695266E+000	1.399119964655256E+001
-1.1063437E+000	-4.240630760788932E+000	1.401119964604732E+001
-1.1073164E+000	-4.334639852245644E+000	1.403119964554207E+001
-1.1083390E+000	-4.429548753632436E+000	1.405119964503683E+001
-1.1093169E+000	-4.524021942996299E+000	1.407119964453159E+001
-1.1102959E+000	-4.617485232237300E+000	1.409119964402635E+001
-1.1113015E+000	-4.710663888189522E+000	1.411119964352110E+001
-1.1122944E+000	-4.805350372774711E+000	1.413119964301586E+001
-1.1133202E+000	-4.898130965315616E+000	1.415119964251062E+001
-1.1143087E+000	-4.989504730535884E+000	1.417119964200538E+001
-1.1153207E+000	-5.081203973127717E+000	1.419119964150013E+001
-1.1163093E+000	-5.172292510254493E+000	1.421119964099489E+001
-1.1173105E+000	-5.263333409610730E+000	1.423119964048965E+001
-1.1183226E+000	-5.354952233119128E+000	1.425119963998441E+001
-1.1193005E+000	-5.444628897226508E+000	1.427119963947916E+001
-1.1202837E+000	-5.534026454306300E+000	1.429119963897392E+001
-1.1213223E+000	-5.624854386680624E+000	1.431119963846868E+001
-1.1222897E+000	-5.715690317667182E+000	1.433119963796344E+001
-1.1233152E+000	-5.805601289702778E+000	1.435119963745819E+001
-1.1243389E+000	-5.895119379791936E+000	1.437119963695295E+001
-1.1253042E+000	-5.984485704451792E+000	1.439119963644771E+001
-1.1263628E+000	-6.076216989921178E+000	1.441119963594247E+001
-1.1273535E+000	-6.165732281489490E+000	1.443119963543722E+001
-1.1283633E+000	-6.254622350550328E+000	1.445119963493198E+001
-1.1293657E+000	-6.343923061258213E+000	1.447119963442674E+001
-1.1303724E+000	-6.435036040428599E+000	1.449119963392150E+001
-1.1313982E+000	-6.524601280275277E+000	1.451119963341625E+001
-1.1323687E+000	-6.612798803382425E+000	1.453119963291101E+001
-1.1333404E+000	-6.702340237382366E+000	1.455119963240577E+001
-1.1343458E+000	-6.791003795547610E+000	1.457119963190053E+001
-1.1353695E+000	-6.879361586852195E+000	1.459119963139528E+001
-1.1363612E+000	-6.967512401855615E+000	1.461119963089004E+001
-1.1373911E+000	-7.056050049761922E+000	1.463119963038480E+001
-1.1383820E+000	-7.143939805941429E+000	1.465119962987956E+001
-1.1393272E+000	-7.231680273181865E+000	1.467119962937431E+001
-1.1403263E+000	-7.318672975318293E+000	1.469119962886907E+001
-1.1413541E+000	-7.406155488557289E+000	1.471119962836383E+001
-1.1423151E+000	-7.493848949670763E+000	1.473119962785859E+001
-1.1433113E+000	-7.581498994181544E+000	1.475119962735334E+001
-1.1443580E+000	-7.669374274296871E+000	1.477119962684810E+001
-1.1453837E+000	-7.755892939865589E+000	1.479119962634286E+001
-1.1463608E+000	-7.842062352018246E+000	1.481119962583762E+001
-1.1473461E+000	-7.929649108813862E+000	1.483119962533237E+001
-1.1483316E+000	-8.016704178518722E+000	1.485119962482713E+001
-1.1493435E+000	-8.103144608438015E+000	1.487119962432189E+001
-1.1503290E+000	-8.190662100083273E+000	1.489119962381665E+001
-1.1513504E+000	-8.277135036057899E+000	1.491119962331140E+001
-1.1523433E+000	-8.364956457581769E+000	1.493119962280616E+001
-1.1533829E+000	-8.452296278542939E+000	1.495119962230092E+001
-1.1543586E+000	-8.538902835713458E+000	1.497119962179568E+001
-1.1553619E+000	-8.625885849197672E+000	1.499119962129043E+001
-1.1563773E+000	-8.712731223139457E+000	1.501119962078519E+001
-1.1573775E+000	-8.798539256883984E+000	1.503119962027995E+001
-1.1583577E+000	-8.883893246451990E+000	1.505119961977471E+001
-1.1593155E+000	-8.969809335966872E+000	1.507119961926946E+001
-1.1603614E+000	-9.056814050508848E+000	1.509119961876422E+001
-1.1613648E+000	-9.142176000608345E+000	1.511119961825898E+001
-1.1623374E+000	-9.227156742579389E+000	1.513119961775374E+001
-1.1633695E+000	-9.313438746664218E+000	1.515119961724849E+001
-1.1643474E+000	-9.399423872431129E+000	1.517119961674325E+001
-1.1653689E+000	-9.485969920125285E+000	1.519119961623801E+001
-1.1663990E+000	-9.572501748800249E+000	1.521119961573277E+001
-1.1674130E+000	-9.657085784607460E+000	1.523119961522752E+001
-1.1683933E+000	-9.741648289064528E+000	1.525119961472228E+001
-1.1693329E+000	-9.827540697322945E+000	1.527119961421704E+001
-1.1703333E+000	-9.913565611673739E+000	1.529119961371180E+001
-1.1713697E+000	-9.997983985477010E+000	1.531119961320655E+001
-1.1723136E+000	-1.008199310302729E+001	1.533119961270131E+001
-1.1733211E+000	-1.016611483361985E+001	1.535119961219607E+001
-1.1743512E+000	-1.025164314359423E+001	1.537119961169083E+001
-1.1753610E+000	-1.033713210870818E+001	1.539119961118558E+001
-1.1763710E+000	-1.042280730605125E+001	1.541119961068034E+001
-1.1773647E+000	-1.050663280735412E+001	1.543119961017510E+001
-1.1783799E+000	-1.059046038985250E+001	1.545119960966986E+001
-1.1793325E+000	-1.067631856931581E+001	1.547119960916461E+001
-1.1803879E+000	-1.076158505760954E+001	1.549119960865937E+001
-1.1814104E+000	-1.084525047739345E+001	1.551119960815413E+001
-1.1823395E+000	-1.092898728532920E+001	1.553119960764889E+001
-1.1840888E+000	-1.105169274875273E+001	1.556619960676471E+001
-1.1858166E+000	-1.118597473535272E+001	1.560119960588054E+001
-1.1868137E+000	-1.126818638046579E+001	1.562119960537530E+001
-1.1878533E+000	-1.135056587556988E+001	1.564119960487005E+001
-1.1888217E+000	-1.143524992134832E+001	1.566119960436481E+001
-1.1898272E+000	-1.151706387433735E+001	1.568119960385957E+001
-1.1908306E+000	-1.160111225148036E+001	1.570119960335433E+001
-1.1918100E+000	-1.168395058065653E+001	1.572119960284908E+001
-1.1928101E+000	-1.176586218343837E+001	1.574119960234384E+001
-1.1937934E+000	-1.184917753024230E+001	1.576119960183860E+001
-1.1948371E+000	-1.193168887247640E+001	1.578119960133336E+001
-1.1958331E+000	-1.201511979930930E+001	1.580119960082811E+001
-1.1967942E+000	-1.209546752191249E+001	1.582119960032287E+001
-1.1977795E+000	-1.217917993002463E+001	1.584119959981763E+001
-1.1988009E+000	-1.225871426446568E+001	1.586119959931239E+001
-1.1997970E+000	-1.234141185300217E+001	1.588119959880714E+001
-1.2007972E+000	-1.242468336141771E+001	1.590119959830190E+001
-1.2013667E+000	-1.246991030375162E+001	1.591259959801391E+001
-1.2008152E+000	-1.243484970182172E+001	1.592359959773603E+001
-1.1997948E+000	-1.237435116701647E+001	1.594359959723079E+001
-1.1988435E+000	-1.231106948024690E+001	1.596359959672554E+001
-1.1978060E+000	-1.224771710236864E+001	1.598359959622030E+001
-1.1968365E+000	-1.218432936982978E+001	1.600359959571506E+001
-1.1957927E+000	-1.212210781623921E+001	1.602359959520982E+001
-1.1948562E+000	-1.205850824299787E+001	1.604359959470457E+001
-1.1938400E+000	-1.199104900906484E+001	1.606359959419933E+001
-1.1928440E+000	-1.192575280947815E+001	1.608359959369409E+001
-1.1918659E+000	-1.185844366086855E+001	1.610359959318885E+001
-1.1908445E+000	-1.179275918834739E+001	1.612359959268360E+001
-1.1897891E+000	-1.172632467167244E+001	1.614359959217836E+001
-1.1888229E+000	-1.165979207638237E+001	1.616359959167312E+001
-1.1878257E+000	-1.159110488411451E+001	1.618359959116788E+001
-1.1868615E+000	-1.152376875943608E+001	1.620359959066263E+001
-1.1858432E+000	-1.145692659500568E+001	1.622359959015739E+001
-1.1848005E+000	-1.138813383794489E+001	1.624359958965215E+001
-1.1838055E+000	-1.131996665812201E+001	1.626359958914691E+001
-1.1828879E+000	-1.125172144588495E+001	1.628359958864166E+001
-1.1818591E+000	-1.118271570238801E+001	1.630359958813642E+001
-1.1808387E+000	-1.111295020580292E+001	1.632359958763118E+001
-1.1798373E+000	-1.104483770993016E+001	1.634359958712594E+001
-1.1788317E+000	-1.097499244163430E+001	1.636359958662069E+001
-1.1778305E+000	-1.090384958850010E+001	1.638359958611545E+001
-1.1768419E+000	-1.083359821637468E+001	1.640359958561021E+001
-1.1758384E+000	-1.076494614034888E+001	1.642359958510497E+001
-1.1748222E+000	-1.069593123843269E+001	1.644359958459972E+001
-1.1738324E+000	-1.062396625677744E+001	1.646359958409448E+001
-1.1728152E+000	-1.055359246167869E+001	1.648359958358924E+001
-1.1718023E+000	-1.048277559793658E+001	1.650359958308400E+001
-1.1708392E+000	-1.041321382009320E+001	1.652359958257875E+001
-1.1698400E+000	-1.034601896338991E+001	1.654359958207351E+001
-1.1688428E+000	-1.027599712212879E+001	1.656359958156827E+001
-1.1678394E+000	-1.020530444300840E+001	1.658359958106303E+001
-1.1668414E+000	-1.013561002992918E+001	1.660359958055778E+001
-1.1657913E+000	-1.006759383198286E+001	1.662359958005254E+001
-1.1648619E+000	-1.000273056825000E+001	1.664359957954730E+001
-1.1638160E+000	-9.943344841400716E+000	1.666359957904206E+001
-1.1628455E+000	-9.885496089027971E+000	1.668359957853681E+001
-1.1618230E+000	-9.828193900485815E+000	1.670359957803157E+001
-1.1608366E+000	-9.736681651737939E+000	1.672359957752633E+001
-1.1598660E+000	-9.616442993283272E+000	1.674359957702109E+001
-1.1588285E+000	-9.508924600978652E+000	1.676359957651584E+001
-1.1578645E+000	-9.421792671084404E+000	1.678359957601060E+001
-1.1568674E+000	-9.355967847837320E+000	1.680359957550536E+001
-1.1558405E+000	-9.290503467122662E+000	1.682359957500012E+001
-1.1548179E+000	-9.223565181096390E+000	1.684359957449487E+001
-1.1538366E+000	-9.154886939459374E+000	1.686359957398963E+001
-1.1528311E+000	-9.089891605906999E+000	1.688359957348439E+001
-1.1518956E+000	-9.026177297035815E+000	1.690359957297915E+001
-1.1507882E+000	-8.967320402463265E+000	1.692359957247390E+001
-1.1498388E+000	-8.903765330711963E+000	1.694359957196866E+001
-1.1488248E+000	-8.819478074709558E+000	1.696359957146342E+001
-1.1478734E+000	-8.709301244053535E+000	1.698359957095818E+001
-1.1468179E+000	-8.604599655502369E+000	1.700359957045293E+001
-1.1458441E+000	-8.548394386139165E+000	1.702359956994769E+001
-1.1447951E+000	-8.496914053128847E+000	1.704359956944245E+001
-1.1438521E+000	-8.441069321499867E+000	1.706359956893721E+001
-1.1428317E+000	-8.376949026352804E+000	1.708359956843196E+001
-1.1417942E+000	-8.313349415858568E+000	1.710359956792672E+001
-1.1408238E+000	-8.258159252504441E+000	1.712359956742148E+001
-1.1399051E+000	-8.217649605539080E+000	1.714359956691624E+001
-1.1388466E+000	-8.161302826470831E+000	1.716359956641099E+001
-1.1378547E+000	-8.098788510594062E+000	1.718359956590575E+001
-1.1368481E+000	-8.031391108201600E+000	1.720359956540051E+001
-1.1358798E+000	-7.962950463096320E+000	1.722359956489527E+001
-1.1348933E+000	-7.894571930997898E+000	1.724359956439002E+001
-1.1338590E+000	-7.826538080556471E+000	1.726359956388478E+001
-1.1328344E+000	-7.757523802005608E+000	1.728359956337954E+001
-1.1318256E+000	-7.688915813548704E+000	1.730359956287430E+001
-1.1308370E+000	-7.618752846287343E+000	1.732359956236905E+001
-1.1298165E+000	-7.548537357813764E+000	1.734359956186381E+001
-1.1288716E+000	-7.478453985104949E+000	1.736359956135857E+001
-1.1278181E+000	-7.409978640990118E+000	1.738359956085333E+001
-1.1268253E+000	-7.340151379505755E+000	1.740359956034808E+001
-1.1258124E+000	-7.268054517192962E+000	1.742359955984284E+001
-1.1248047E+000	-7.196274911777806E+000	1.744359955933760E+001
-1.1237916E+000	-7.127242898775478E+000	1.746359955883236E+001
-1.1227976E+000	-7.058237348165761E+000	1.748359955832711E+001
-1.1218156E+000	-6.988189531283240E+000	1.750359955782187E+001
-1.1208225E+000	-6.915350434266834E+000	1.752359955731663E+001
-1.1197873E+000	-6.846371341082801E+000	1.754359955681139E+001
-1.1188730E+000	-6.778301878935764E+000	1.756359955630614E+001
-1.1178304E+000	-6.708024383832999E+000	1.758359955580090E+001
-1.1168610E+000	-6.636439409520882E+000	1.760359955529566E+001
-1.1158341E+000	-6.565296702914750E+000	1.762359955479042E+001
-1.1148551E+000	-6.494029683785286E+000	1.764359955428517E+001
-1.1138420E+000	-6.424935792469295E+000	1.766359955377993E+001
-1.1128182E+000	-6.354711102114770E+000	1.768359955327469E+001
-1.1118457E+000	-6.285520121869105E+000	1.770359955276945E+001
-1.1108009E+000	-6.214271203925207E+000	1.772359955226420E+001
-1.1097910E+000	-6.142536287920322E+000	1.774359955175896E+001
-1.1088427E+000	-6.073724612593622E+000	1.776359955125372E+001
-1.1078446E+000	-6.001954373800075E+000	1.778359955074848E+001
-1.1068254E+000	-5.931756206684639E+000	1.780359955024323E+001
-1.1058155E+000	-5.861143028570524E+000	1.782359954973799E+001
-1.1048300E+000	-5.789973636468268E+000	1.784359954923275E+001
-1.1038500E+000	-5.720243383612882E+000	1.786359954872751E+001
-1.1028243E+000	-5.649869113746618E+000	1.788359954822226E+001
-1.1018484E+000	-5.578964286380319E+000	1.790359954771702E+001
-1.1008267E+000	-5.507670923239647E+000	1.792359954721178E+001
-1.0998213E+000	-5.434929017391468E+000	1.794359954670654E+001
-1.0988072E+000	-5.366400172726955E+000	1.796359954620129E+001
-1.0977994E+000	-5.296785285489406E+000	1.798359954569605E+001
-1.0968257E+000	-5.225085691445393E+000	1.800359954519081E+001
-1.0957894E+000	-5.154507788105136E+000	1.802359954468557E+001
-1.0947850E+000	-5.082834426727544E+000	1.804359954418032E+001
-1.0938367E+000	-5.013413616352608E+000	1.806359954367508E+001
-1.0927907E+000	-4.943489145073627E+000	1.808359954316984E+001
-1.0917864E+000	-4.873061501731442E+000	1.810359954266460E+001
-1.0907912E+000	-4.802633820722480E+000	1.812359954215935E+001
-1.0897698E+000	-4.731923439436471E+000	1.814359954165411E+001
-1.0887823E+000	-4.660312337593879E+000	1.816359954114887E+001
-1.0877937E+000	-4.590767672078471E+000	1.818359954064363E+001
-1.0867733E+000	-4.520834902922307E+000	1.820359954013838E+001
-1.0858134E+000	-4.449833084725668E+000	1.822359953963314E+001
-1.0848067E+000	-4.379785197476551E+000	1.824359953912790E+001
-1.0838234E+000	-4.310046319332372E+000	1.826359953862266E+001
-1.0820727E+000	-4.208524310185261E+000	1.829859953773848E+001
-1.0803517E+000	-4.105813181648657E+000	1.833359953685431E+001
-1.0793185E+000	-4.034959592752983E+000	1.835359953634907E+001
-1.0783436E+000	-3.965353457464118E+000	1.837359953584382E+001
-1.0773445E+000	-3.895465770529377E+000	1.839359953533858E+001
-1.0763018E+000	-3.825584460670743E+000	1.841359953483334E+001
-1.0753175E+000	-3.755789852597644E+000	1.843359953432810E+001
-1.0743351E+000	-3.685587975506976E+000	1.845359953382285E+001
-1.0732988E+000	-3.615646539669889E+000	1.847359953331761E+001
-1.0723102E+000	-3.546134284593983E+000	1.849359953281237E+001
-1.0713228E+000	-3.476763500107656E+000	1.851359953230713E+001
-1.0703468E+000	-3.407526918790385E+000	1.853359953180188E+001
-1.0693634E+000	-3.337399276180388E+000	1.855359953129664E+001
-1.0683358E+000	-3.268570614357781E+000	1.857359953079140E+001
-1.0673175E+000	-3.199841022491449E+000	1.859359953028616E+001
-1.0663246E+000	-3.130234399603474E+000	1.861359952978091E+001
-1.0653423E+000	-3.061693088668910E+000	1.863359952927567E+001
-1.0643580E+000	-2.992655992507928E+000	1.865359952877043E+001
-1.0633249E+000	-2.923222695373823E+000	1.867359952826519E+001
-1.0623204E+000	-2.854640394863139E+000	1.869359952775994E+001
-1.0613295E+000	-2.786458306221494E+000	1.871359952725470E+001
-1.0603504E+000	-2.717889393162388E+000	1.873359952674946E+001
-1.0593481E+000	-2.649228043647273E+000	1.875359952624422E+001
-1.0583107E+000	-2.580545987726914E+000	1.877359952573897E+001
-1.0573571E+000	-2.512349766989530E+000	1.879359952523373E+001
-1.0563177E+000	-2.444423901951970E+000	1.881359952472849E+001
-1.0553386E+000	-2.377221314029551E+000	1.883359952422325E+001
-1.0543787E+000	-2.309799762028781E+000	1.885359952371800E+001
-1.0533242E+000	-2.241337489957598E+000	1.887359952321276E+001
-1.0523570E+000	-2.173967114960141E+000	1.889359952270752E+001
-1.0513258E+000	-2.107322898796863E+000	1.891359952220228E+001
-1.0503012E+000	-2.039736816038690E+000	1.893359952169703E+001
-1.0493307E+000	-1.972452025136199E+000	1.895359952119179E+001
-1.0483240E+000	-1.904594878976543E+000	1.897359952068655E+001
-1.0473183E+000	-1.837534482176928E+000	1.899359952018131E+001
-1.0463160E+000	-1.772057610874377E+000	1.901359951967606E+001
-1.0453063E+000	-1.705859210135204E+000	1.903359951917082E+001
-1.0443590E+000	-1.639843597697714E+000	1.905359951866558E+001
-1.0433207E+000	-1.574139835105998E+000	1.907359951816034E+001
-1.0423342E+000	-1.509532026532614E+000	1.909359951765509E+001
-1.0413381E+000	-1.444886318821871E+000	1.911359951714985E+001
-1.0403272E+000	-1.380063902690179E+000	1.913359951664461E+001
-1.0393163E+000	-1.316003654359109E+000	1.915359951613937E+001
-1.0383786E+000	-1.252173188659881E+000	1.917359951563412E+001
-1.0373337E+000	-1.188069632690816E+000	1.919359951512888E+001
-1.0363559E+000	-1.125499337187236E+000	1.921359951462364E+001
-1.0353248E+000	-1.063608287419707E+000	1.923359951411840E+001
-1.0343213E+000	-1.000937178317042E+000	1.925359951361315E+001
-1.0333083E+000	-9.398718073239749E-001	1.927359951310791E+001
-1.0323187E+000	-8.791792208535796E-001	1.929359951260267E+001
-1.0313767E+000	-8.189378591357830E-001	1.931359951209743E+001
-1.0303669E+000	-7.602138906303360E-001	1.933359951159218E+001
-1.0293465E+000	-7.024887776933602E-001	1.935359951108694E+001
-1.0283749E+000	-6.450604691894499E-001	1.937359951058170E+001
-1.0273269E+000	-5.887767230677916E-001	1.939359951007646E+001
-1.0263742E+000	-5.338574544940524E-001	1.941359950957121E+001
-1.0253665E+000	-4.806197994750807E-001	1.943359950906597E+001
-1.0243590E+000	-4.285753304656166E-001	1.945359950856073E+001
-1.0233544E+000	-3.783414010993300E-001	1.947359950805549E+001
-1.0223681E+000	-3.304762127291809E-001	1.949359950755024E+001
-1.0206299E+000	-2.546448027375536E-001	1.952859950666607E+001
-1.0188601E+000	-1.862193096506721E-001	1.956359950578189E+001
-1.0178429E+000	-1.508571415777422E-001	1.958359950527665E+001
-1.0168681E+000	-1.190897040327807E-001	1.960359950477141E+001
-1.0158412E+000	-9.089466428849846E-002	1.962359950426617E+001
-1.0148718E+000	-6.610234908617302E-002	1.964359950376092E+001
-1.0138727E+000	-4.471749445979679E-002	1.966359950325568E+001
-1.0128362E+000	-2.662882186996277E-002	1.968359950275044E+001
-1.0118456E+000	-1.020272208835296E-002	1.970359950224520E+001
-1.0108654E+000	4.562394061142380E-003	1.972359950173995E+001
-1.0098747E+000	1.925578076124013E-002	1.974359950123471E+001
-1.0088416E+000	3.528030198099771E-002	1.976359950072947E+001
-1.0078509E+000	5.284381678534882E-002	1.978359950022423E+001
-1.0068792E+000	7.341879564854845E-002	1.980359949971898E+001
-1.0058641E+000	9.752253993388482E-002	1.982359949921374E+001
-1.0048500E+000	1.246267150013916E-001	1.984359949870850E+001
-1.0038573E+000	1.551645003362667E-001	1.986359949820326E+001
-1.0029048E+000	1.895536625136936E-001	1.988359949769801E+001
-1.0018895E+000	2.273039290189955E-001	1.990359949719277E+001
-1.0008543E+000	2.682459255835674E-001	1.992359949668753E+001
-9.9986041E-001	3.120145229105331E-001	1.994359949618229E+001
-9.9886233E-001	3.590284397359946E-001	1.996359949567704E+001
-9.9785239E-001	4.095284818516429E-001	1.998359949517180E+001
-9.9683309E-001	4.619895618201966E-001	2.000359949466656E+001
-9.9583703E-001	5.172297171213582E-001	2.002359949416132E+001
-9.9484843E-001	5.741470423009685E-001	2.004359949365607E+001
-9.9386728E-001	6.331402763931315E-001	2.006359949315083E+001
-9.9284893E-001	6.944968039687311E-001	2.008359949264559E+001
-9.9185187E-001	7.565038043281280E-001	2.010359949214035E+001
-9.9084842E-001	8.199664950370820E-001	2.012359949163510E+001
-9.8984712E-001	8.855118331913303E-001	2.014359949112986E+001
-9.8887539E-001	9.514395414023777E-001	2.016359949062462E+001
-9.8787940E-001	1.018687124881482E+000	2.018359949011938E+001
-9.8611873E-001	1.140241417503496E+000	2.021859948923520E+001
-9.8434293E-001	1.263267778377568E+000	2.025359948835103E+001
-9.8338097E-001	1.333490933602054E+000	2.027359948784579E+001
-9.8237753E-001	1.403580707083982E+000	2.029359948734054E+001
-9.8142290E-001	1.474073997802209E+000	2.031359948683530E+001
-9.8036307E-001	1.544878195971261E+000	2.033359948633006E+001
-9.7935754E-001	1.615599469281733E+000	2.035359948582482E+001
-9.7839653E-001	1.686403709567252E+000	2.037359948531957E+001
-9.7737622E-001	1.758360456571822E+000	2.039359948481433E+001
-9.7636628E-001	1.830198018708163E+000	2.041359948430909E+001
-9.7537440E-001	1.901692118702670E+000	2.043359948380385E+001
-9.7435200E-001	1.973208123197161E+000	2.045359948329860E+001
-9.7335064E-001	2.045785581279134E+000	2.047359948279336E+001
-9.7236210E-001	2.118027879753051E+000	2.049359948228812E+001
-9.7138077E-001	2.190354657255938E+000	2.051359948178288E+001
-9.7033066E-001	2.263174314051865E+000	2.053359948127763E+001
-9.6932000E-001	2.335110882918048E+000	2.055359948077239E+001
-9.6834189E-001	2.407556101472856E+000	2.057359948026715E+001
-9.6735543E-001	2.480716508709726E+000	2.059359947976191E+001
-9.6637732E-001	2.552822647616278E+000	2.061359947925666E+001
-9.6536756E-001	2.624843159690514E+000	2.063359947875142E+001
-9.6439493E-001	2.697107292504786E+000	2.065359947824618E+001
-9.6336818E-001	2.769795378670100E+000	2.067359947774094E+001
-9.6239758E-001	2.842460362033705E+000	2.069359947723569E+001
-9.6140790E-001	2.915028430521488E+000	2.071359947673045E+001
-9.6040875E-001	2.987559311919755E+000	2.073359947622521E+001
-9.5942014E-001	3.059750892221949E+000	2.075359947571997E+001
-9.5837951E-001	3.131682056726682E+000	2.077359947521472E+001
-9.5735908E-001	3.204613014848704E+000	2.079359947470948E+001
-9.5635992E-001	3.276457721574452E+000	2.081359947420424E+001
-9.5538396E-001	3.348011808469906E+000	2.083359947369900E+001
-9.5437533E-001	3.420736966447699E+000	2.085359947319375E+001
-9.5338559E-001	3.491616211003731E+000	2.087359947268851E+001
-9.5239586E-001	3.562382497514299E+000	2.089359947218327E+001
-9.5139462E-001	3.634174268692732E+000	2.091359947167803E+001
-9.5039976E-001	3.704716125710149E+000	2.093359947117278E+001
-9.4942600E-001	3.775178637769486E+000	2.095359947066754E+001
-9.4839275E-001	3.845373352989554E+000	2.097359947016230E+001
-9.4738710E-001	3.915514368977824E+000	2.099359946965706E+001
-9.4633812E-001	3.987469234814256E+000	2.101359946915181E+001
-9.4533902E-001	4.057677821566699E+000	2.103359946864657E+001
-9.4435567E-001	4.128124267690730E+000	2.105359946814133E+001
-9.4341898E-001	4.199065015961722E+000	2.107359946763609E+001
-9.4237202E-001	4.270103012108180E+000	2.109359946713084E+001
-9.4135058E-001	4.342541089074473E+000	2.111359946662560E+001
-9.4036400E-001	4.413494908561304E+000	2.113359946612036E+001
-9.3932247E-001	4.484654749433190E+000	2.115359946561512E+001
-9.3837422E-001	4.556676064928382E+000	2.117359946510987E+001
-9.3739307E-001	4.628009885135640E+000	2.119359946460463E+001
-9.3640238E-001	4.699912103099994E+000	2.121359946409939E+001
-9.3534678E-001	4.772182799461802E+000	2.123359946359415E+001
-9.3435091E-001	4.843903960039224E+000	2.125359946308890E+001
-9.3338352E-001	4.916430988659460E+000	2.127359946258366E+001
-9.3235362E-001	4.989181963519929E+000	2.129359946207842E+001
-9.3136591E-001	5.061564263784220E+000	2.131359946157318E+001
-9.3039006E-001	5.134009411765483E+000	2.133359946106793E+001
-9.2937493E-001	5.206033750540684E+000	2.135359946056269E+001
-9.2837894E-001	5.278060233427411E+000	2.137359946005745E+001
-9.2735738E-001	5.348149009876792E+000	2.139359945955221E+001
-9.2639953E-001	5.417980057497800E+000	2.141359945904696E+001
-9.2536330E-001	5.489298167328045E+000	2.143359945854172E+001
-9.2438954E-001	5.560594249102820E+000	2.145359945803648E+001
-9.2343390E-001	5.632754183891748E+000	2.147359945753124E+001
-9.2241865E-001	5.706451008303333E+000	2.149359945702599E+001
-9.2140454E-001	5.778746680667041E+000	2.151359945652075E+001
-9.2040545E-001	5.850386593076937E+000	2.153359945601551E+001
-9.1933632E-001	5.922475389722333E+000	2.155359945551027E+001
-9.1831690E-001	5.992684873027947E+000	2.157359945500502E+001
-9.1731131E-001	6.061460648973792E+000	2.159359945449978E+001
-9.1635346E-001	6.129749156120752E+000	2.161359945399454E+001
-9.1532248E-001	6.201435919437188E+000	2.163359945348930E+001
-9.1430521E-001	6.274996422645174E+000	2.165359945298405E+001
-9.1333145E-001	6.349173687812367E+000	2.167359945247881E+001
-9.1236192E-001	6.423215846220666E+000	2.169359945197357E+001
-9.1137546E-001	6.500507161021233E+000	2.171359945146833E+001
-9.1031688E-001	6.586464868651536E+000	2.173359945096308E+001
-9.0935481E-001	6.677929953982492E+000	2.175359945045784E+001
-9.0834600E-001	6.763265758338903E+000	2.177359944995260E+001
-9.0734893E-001	6.844062346965119E+000	2.179359944944736E+001
-9.0632004E-001	6.924012776464266E+000	2.181359944894211E+001
-9.0536129E-001	7.001711432304667E+000	2.183359944843687E+001
-9.0436518E-001	7.078261775275067E+000	2.185359944793163E+001
-9.0338081E-001	7.153902199119301E+000	2.187359944742639E+001
-9.0232641E-001	7.227988378869156E+000	2.189359944692114E+001
-9.0132940E-001	7.301789429866602E+000	2.191359944641590E+001
-9.0038639E-001	7.376110985461217E+000	2.193359944591066E+001
-8.9931172E-001	7.449549223399845E+000	2.195359944540542E+001
-8.9836031E-001	7.522104951242625E+000	2.197359944490017E+001
-8.9732933E-001	7.594612500319876E+000	2.199359944439493E+001
-8.9632601E-001	7.667320966306647E+000	2.201359944388969E+001
-8.9531595E-001	7.741226195047312E+000	2.203359944338445E+001
-8.9430296E-001	7.812567923218040E+000	2.205359944287920E+001
-8.9331865E-001	7.884166007240623E+000	2.207359944237396E+001
-8.9232588E-001	7.955247087611070E+000	2.209359944186872E+001
-8.9128846E-001	8.026684538357799E+000	2.211359944136348E+001
-8.9028817E-001	8.097825922071920E+000	2.213359944085823E+001
-8.8935256E-001	8.167579857839485E+000	2.215359944035299E+001
-8.8832903E-001	8.236853379342293E+000	2.217359943984775E+001
-8.8732034E-001	8.307363804843703E+000	2.219359943934251E+001
-8.8636345E-001	8.377074629068403E+000	2.221359943883726E+001
-8.8533455E-001	8.446634345584478E+000	2.223359943833202E+001
-8.8436300E-001	8.515653957923263E+000	2.225359943782678E+001
-8.8334262E-001	8.584331523213155E+000	2.227359943732154E+001
-8.8237405E-001	8.652840715315648E+000	2.229359943681629E+001
-8.8140249E-001	8.721702421704919E+000	2.231359943631105E+001
-8.8034278E-001	8.789960281716475E+000	2.233359943580581E+001
-8.7933195E-001	8.857151619262169E+000	2.235359943530057E+001
-8.7834764E-001	8.924314286973768E+000	2.237359943479532E+001
-8.7732828E-001	8.992278407017409E+000	2.239359943429008E+001
-8.7630361E-001	9.058754341469893E+000	2.241359943378484E+001
-8.7536383E-001	9.124786350462191E+000	2.243359943327960E+001
-8.7437296E-001	9.191860313216878E+000	2.245359943277435E+001
-8.7335265E-001	9.257695532507398E+000	2.247359943226911E+001
-8.7234908E-001	9.323485024273396E+000	2.249359943176387E+001
-8.7133193E-001	9.389265108439680E+000	2.251359943125863E+001
-8.7037086E-001	9.453544523980938E+000	2.253359943075338E+001
-8.6935163E-001	9.518520684705891E+000	2.255359943024814E+001
-8.6835343E-001	9.583489781452556E+000	2.257359942974290E+001
-8.6734670E-001	9.647092649506206E+000	2.259359942923766E+001
-8.6633486E-001	9.710681965781625E+000	2.261359942873241E+001
-8.6537492E-001	9.773642500241600E+000	2.263359942822717E+001
-8.6436516E-001	9.836509688860881E+000	2.265359942772193E+001
-8.6336571E-001	9.897894229325999E+000	2.267359942721669E+001
-8.6237723E-001	9.959425256484110E+000	2.269359942671144E+001
-8.6134833E-001	1.002063772992956E+001	2.271359942620620E+001
-8.6036825E-001	1.008021629932860E+001	2.273359942570096E+001
-8.5935527E-001	1.014000056352883E+001	2.275359942519572E+001
-8.5835707E-001	1.020009571644994E+001	2.277359942469047E+001
-8.5736847E-001	1.025850473758248E+001	2.279359942418523E+001
-8.5633218E-001	1.031553059402442E+001	2.281359942367999E+001
-8.5535198E-001	1.037334523432784E+001	2.283359942317475E+001
-8.5435170E-001	1.042952713949815E+001	2.285359942266950E+001
-8.5339600E-001	1.048525615284841E+001	2.287359942216426E+001
-8.5237771E-001	1.054038686719207E+001	2.289359942165902E+001
-8.5134888E-001	1.059335919800736E+001	2.291359942115378E+001
-8.5039848E-001	1.064499977479380E+001	2.293359942064853E+001
-8.4940666E-001	1.069652307364674E+001	2.295359942014329E+001
-8.4840322E-001	1.074850712302657E+001	2.297359941963805E+001
-8.4736264E-001	1.079876103086605E+001	2.299359941913281E+001
-8.4642291E-001	1.084605126662396E+001	2.301359941862756E+001
-8.4542036E-001	1.089375094821060E+001	2.303359941812232E+001
-8.4434903E-001	1.094048867209091E+001	2.305359941761708E+001
-8.4260970E-001	1.103670946170610E+001	2.308859941673290E+001
-8.4084970E-001	1.113884234925114E+001	2.312359941584873E+001
-8.3982617E-001	1.117880344142518E+001	2.314359941534349E+001
-8.3883232E-001	1.121828805820809E+001	2.316359941483825E+001
-8.3783412E-001	1.125384195066158E+001	2.318359941433300E+001
-8.3681166E-001	1.128549209485453E+001	2.320359941382776E+001
-8.3585262E-001	1.131825449234913E+001	2.322359941332252E+001
-8.3485347E-001	1.134849054780271E+001	2.324359941281728E+001
-8.3381081E-001	1.137407213366695E+001	2.326359941231203E+001
-8.3284020E-001	1.140201243509850E+001	2.328359941180679E+001
-8.3182293E-001	1.142615297353935E+001	2.330359941130155E+001
-8.3088845E-001	1.144743191202488E+001	2.332359941079631E+001
-8.2985741E-001	1.146596442080211E+001	2.334359941029106E+001
-8.2883924E-001	1.148286280449901E+001	2.336359940978582E+001
-8.2784635E-001	1.149630704687706E+001	2.338359940928058E+001
-8.2680678E-001	1.150224286400605E+001	2.340359940877534E+001
-8.2583940E-001	1.150880587846044E+001	2.342359940827009E+001
-8.2486784E-001	1.151035218520301E+001	2.344359940776485E+001
-8.2384109E-001	1.150926556272640E+001	2.346359940725961E+001
-8.2282686E-001	1.150770175457001E+001	2.348359940675437E+001
-8.2183832E-001	1.149665999909243E+001	2.350359940624912E+001
-8.2084018E-001	1.148519449018772E+001	2.352359940574388E+001
-8.1983042E-001	1.146886159314052E+001	2.354359940523864E+001
-8.1885666E-001	1.144913756019538E+001	2.356359940473340E+001
-8.1784678E-001	1.142530508008269E+001	2.358359940422815E+001
-8.1680834E-001	1.139844301756888E+001	2.360359940372291E+001
-8.1579226E-001	1.136519469486348E+001	2.362359940321767E+001
-8.1480569E-001	1.132714912874835E+001	2.364359940271243E+001
-8.1379586E-001	1.128746195054714E+001	2.366359940220718E+001
-8.1281686E-001	1.123831358220843E+001	2.368359940170194E+001
-8.1181550E-001	1.118926202671398E+001	2.370359940119670E+001
-8.1078565E-001	1.113408944093521E+001	2.372359940069146E+001
-8.0979270E-001	1.106814934892785E+001	2.374359940018621E+001
-8.0882740E-001	1.099266019380758E+001	2.376359939968097E+001
-8.0781019E-001	1.091630490455364E+001	2.378359939917573E+001
-8.0683434E-001	1.082801647484304E+001	2.380359939867049E+001
-8.0578536E-001	1.073544395218295E+001	2.382359939816524E+001
-8.0481470E-001	1.063230639861692E+001	2.384359939766000E+001
-8.0384308E-001	1.051841916226683E+001	2.386359939715476E+001
-8.0283648E-001	1.038631730112767E+001	2.388359939664952E+001
-8.0182242E-001	1.024993109371925E+001	2.390359939614427E+001
-8.0080301E-001	1.010879287123680E+001	2.392359939563903E+001
-7.9981863E-001	9.950492045945609E+000	2.394359939513379E+001
-7.9885238E-001	9.782730089293583E+000	2.396359939462855E+001
-7.9784578E-001	9.610993329849528E+000	2.398359939412330E+001
-7.9682529E-001	9.422889000011850E+000	2.400359939361806E+001
-7.9585576E-001	9.220457477702041E+000	2.402359939311282E+001
-7.9482156E-001	9.014756499893139E+000	2.404359939260758E+001
-7.9379165E-001	8.803084976971149E+000	2.406359939210233E+001
-7.9284757E-001	8.561998210847364E+000	2.408359939159709E+001
-7.9185152E-001	8.322448316547593E+000	2.410359939109185E+001
-7.9081517E-001	8.074701650275131E+000	2.412359939058661E+001
-7.8982025E-001	7.821072113596744E+000	2.414359939008136E+001
-7.8883386E-001	7.579844543089450E+000	2.416359938957612E+001
-7.8780699E-001	7.345700671275466E+000	2.418359938907088E+001
-7.8682154E-001	7.114816406948705E+000	2.420359938856564E+001
-7.8582871E-001	6.889020383358002E+000	2.422359938806039E+001
-7.8484440E-001	6.684079465352823E+000	2.424359938755515E+001
-7.8384632E-001	6.481947586768243E+000	2.426359938704991E+001
-7.8283739E-001	6.277492715666710E+000	2.428359938654467E+001
-7.8183514E-001	6.087073525206918E+000	2.430359938603942E+001
-7.8084016E-001	5.917227112998575E+000	2.432359938553418E+001
-7.7984625E-001	5.726622929589624E+000	2.434359938502894E+001
-7.7883321E-001	5.557686352895402E+000	2.436359938452370E+001
-7.7779049E-001	5.434064869251562E+000	2.438359938401845E+001
-7.7683377E-001	5.319982979032737E+000	2.440359938351321E+001
-7.7581334E-001	5.210732968731090E+000	2.442359938300797E+001
-7.7480143E-001	5.081970317082316E+000	2.444359938250273E+001
-7.7383608E-001	4.956687977744487E+000	2.446359938199748E+001
-7.7284539E-001	4.842173157880698E+000	2.448359938149224E+001
-7.7182186E-001	4.724239941686420E+000	2.450359938098700E+001
-7.7082473E-001	4.630148107806875E+000	2.452359938048176E+001
-7.6985216E-001	4.529828432947397E+000	2.454359937997651E+001
-7.6889521E-001	4.424050148162593E+000	2.456359937947127E+001
-7.6784837E-001	4.336406313296834E+000	2.458359937896603E+001
-7.6613194E-001	4.139507633851224E+000	2.461859937808185E+001
-7.6435959E-001	3.936455519456008E+000	2.465359937719768E+001
-7.6338905E-001	3.854110684659751E+000	2.467359937669244E+001
-7.6235908E-001	3.785317645511690E+000	2.469359937618719E+001
-7.6139486E-001	3.713004627575486E+000	2.471359937568195E+001
-7.6036376E-001	3.653159170101103E+000	2.473359937517671E+001
-7.5937098E-001	3.583319350042295E+000	2.475359937467147E+001
-7.5836867E-001	3.503479171130394E+000	2.477359937416622E+001
-7.5734615E-001	3.448328524207081E+000	2.479359937366098E+001
-7.5638509E-001	3.371562783709834E+000	2.481359937315574E+001
-7.5535715E-001	3.298111702418995E+000	2.483359937265050E+001
-7.5438029E-001	3.244915539812713E+000	2.485359937214525E+001
-7.5334394E-001	3.196322676208296E+000	2.487359937164001E+001
-7.5239789E-001	3.153018193733374E+000	2.489359937113477E+001
-7.5137722E-001	3.090326853096499E+000	2.491359937062953E+001
-7.5037491E-001	3.034156052188749E+000	2.493359937012428E+001
-7.4938428E-001	2.986578956660299E+000	2.495359936961904E+001
-7.4836701E-001	2.914985009158656E+000	2.497359936911380E+001
-7.4737841E-001	2.866081204679283E+000	2.499359936860856E+001
-7.4638766E-001	2.823750994685627E+000	2.501359936810331E+001
-7.4539590E-001	2.797620076686156E+000	2.503359936759807E+001
-7.4440837E-001	2.762496609033818E+000	2.505359936709283E+001
-7.4336362E-001	2.709598018063446E+000	2.507359936658759E+001
-7.4236006E-001	2.661368279200467E+000	2.509359936608234E+001
-7.4131626E-001	2.611581003500348E+000	2.511359936557710E+001
-7.4035639E-001	2.571306016710077E+000	2.513359936507186E+001
-7.3932439E-001	2.537683051286482E+000	2.515359936456662E+001
-7.3832935E-001	2.497406992026505E+000	2.517359936406137E+001
-7.3731840E-001	2.450371030304186E+000	2.519359936355613E+001
-7.3634046E-001	2.407638088903509E+000	2.521359936305089E+001
-7.3535401E-001	2.379923649753145E+000	2.523359936254565E+001
-7.3436552E-001	2.357188566070469E+000	2.525359936204040E+001
-7.3338634E-001	2.308275036099886E+000	2.527359936153516E+001
-7.3236591E-001	2.280795558252269E+000	2.529359936102992E+001
-7.3137623E-001	2.267132712735076E+000	2.531359936052468E+001
-7.3036122E-001	2.236681373169027E+000	2.533359936001943E+001
-7.2936618E-001	2.207752489381374E+000	2.535359935951419E+001
-7.2838598E-001	2.168465761260862E+000	2.537359935900895E+001
-7.2737521E-001	2.118044550427129E+000	2.539359935850371E+001
-7.2643858E-001	2.072503956034787E+000	2.541359935799846E+001
-7.2538745E-001	2.037257481366414E+000	2.543359935749322E+001
-7.2438812E-001	1.986286301165819E+000	2.545359935698798E+001
-7.2338152E-001	1.945660672047076E+000	2.547359935648274E+001
-7.2240037E-001	1.909668162258136E+000	2.549359935597749E+001
-7.2135031E-001	1.870045710355047E+000	2.551359935547225E+001
-7.2036064E-001	1.837649521314447E+000	2.553359935496701E+001
-7.1938998E-001	1.811823306915667E+000	2.555359935446177E+001
-7.1839821E-001	1.807499289512644E+000	2.557359935395652E+001
-7.1736306E-001	1.779717709041309E+000	2.559359935345128E+001
-7.1633416E-001	1.740099739490283E+000	2.561359935294604E+001
-7.1532845E-001	1.698085692918143E+000	2.563359935244080E+001
-7.1434093E-001	1.684702712214655E+000	2.565359935193555E+001
-7.1332371E-001	1.660315159294348E+000	2.567359935143031E+001
-7.1237016E-001	1.647987720039161E+000	2.569359935092507E+001
-7.1130311E-001	1.625794096539423E+000	2.571359935041983E+001
-7.1031862E-001	1.612926096344991E+000	2.573359934991458E+001
-7.0935661E-001	1.592146404604947E+000	2.575359934940934E+001
-7.0835000E-001	1.560969043833520E+000	2.577359934890410E+001
-7.0736670E-001	1.530433679309983E+000	2.579359934839886E+001
-7.0632076E-001	1.511116630190782E+000	2.581359934789361E+001
-7.0534384E-001	1.488248212780391E+000	2.583359934738837E+001
-7.0434892E-001	1.474259410053499E+000	2.585359934688313E+001
-7.0331901E-001	1.454697774619696E+000	2.587359934637789E+001
-7.0236331E-001	1.452839530900949E+000	2.589359934587264E+001
-7.0130348E-001	1.441359774623482E+000	2.591359934536740E+001
-7.0030648E-001	1.442129181904932E+000	2.593359934486216E+001
-6.9933701E-001	1.407169920806261E+000	2.595359934435692E+001
-6.9833785E-001	1.376789110919670E+000	2.597359934385167E+001
-6.9735551E-001	1.371202963611321E+000	2.599359934334643E+001
-6.9635630E-001	1.360367212754987E+000	2.601359934284119E+001
-6.9532847E-001	1.351598901984591E+000	2.603359934233595E+001
-6.9432086E-001	1.334134785975852E+000	2.605359934183070E+001
-6.9335020E-001	1.332510598210825E+000	2.607359934132546E+001
-6.9234037E-001	1.325641152241993E+000	2.609359934082022E+001
-6.9135499E-001	1.308866734926901E+000	2.611359934031498E+001
-6.9033569E-001	1.291830929824048E+000	2.613359933980973E+001
-6.8930358E-001	1.286173264909948E+000	2.615359933930449E+001
-6.8831807E-001	1.268906082026664E+000	2.617359933879925E+001
-6.8730724E-001	1.254007527811659E+000	2.619359933829401E+001
-6.8633777E-001	1.238944742725129E+000	2.621359933778876E+001
-6.8533438E-001	1.230243613736498E+000	2.623359933728352E+001
-6.8435729E-001	1.210492981183859E+000	2.625359933677828E+001
-6.8334651E-001	1.193603681607382E+000	2.627359933627304E+001
-6.8234515E-001	1.180768357693326E+000	2.629359933576779E+001
-6.8133962E-001	1.147591419931913E+000	2.631359933526255E+001
-6.8035740E-001	1.136617821848233E+000	2.633359933475731E+001
-6.7935604E-001	1.139975755682421E+000	2.635359933425207E+001
-6.7834193E-001	1.135005974831682E+000	2.637359933374682E+001
-6.7735767E-001	1.117051646527322E+000	2.639359933324158E+001
-6.7635739E-001	1.109951721297374E+000	2.641359933273634E+001
-6.7533696E-001	1.097281623631719E+000	2.643359933223110E+001
-6.7440557E-001	1.079453580909308E+000	2.645359933172585E+001
-6.7338628E-001	1.063279661246479E+000	2.647359933122061E+001
-6.7233831E-001	1.085773611441256E+000	2.649359933071537E+001
-6.7137837E-001	1.068403160303006E+000	2.651359933021013E+001
-6.7036849E-001	1.063945629840925E+000	2.653359932970488E+001
-6.6934377E-001	1.068012693172534E+000	2.655359932919964E+001
-6.6837215E-001	1.054521167547335E+000	2.657359932869440E+001
-6.6739219E-001	1.039010595219832E+000	2.659359932818916E+001
-6.6633034E-001	1.023055894817743E+000	2.661359932768391E+001
-6.6534591E-001	1.020233199103849E+000	2.663359932717867E+001
-6.6431600E-001	1.004327872043683E+000	2.665359932667343E+001
-6.6332740E-001	9.714247896853383E-001	2.667359932616819E+001
-6.6234732E-001	9.652610090561247E-001	2.669359932566294E+001
-6.6130131E-001	9.657662188530818E-001	2.671359932515770E+001
-6.6030115E-001	9.796896195556570E-001	2.673359932465246E+001
-6.5933055E-001	9.534466731775977E-001	2.675359932414722E+001
-6.5837175E-001	9.450245583429933E-001	2.677359932364197E+001
-6.5734798E-001	9.440451407701609E-001	2.679359932313673E+001
-6.5637112E-001	9.353739532331673E-001	2.681359932263149E+001
-6.5535814E-001	9.348934989215643E-001	2.683359932212625E+001
-6.5434307E-001	9.326378622920188E-001	2.685359932162100E+001
-6.5336716E-001	9.402279683078323E-001	2.687359932111576E+001
-6.5240711E-001	9.335404578078954E-001	2.689359932061052E+001
-6.5135604E-001	9.402420914007621E-001	2.691359932010528E+001
-6.5036213E-001	9.439832493662896E-001	2.693359931960003E+001
-6.4937460E-001	9.368753528429394E-001	2.695359931909479E+001
-6.4835203E-001	9.266604391547553E-001	2.697359931858955E+001
-6.4735699E-001	9.391540417240698E-001	2.699359931808431E+001
-6.4638865E-001	9.436485426914381E-001	2.701359931757906E+001
-6.4534700E-001	9.070440054767666E-001	2.703359931707382E+001
-6.4436263E-001	8.975974207019650E-001	2.705359931656858E+001
-6.4333582E-001	8.762604921745751E-001	2.707359931606334E+001
-6.4235353E-001	8.552582916389762E-001	2.709359931555809E+001
-6.4135337E-001	8.544289703584393E-001	2.711359931505285E+001
-6.4039022E-001	8.490238785743744E-001	2.713359931454761E+001
-6.3936979E-001	8.443421173530332E-001	2.715359931404237E+001
-6.3833338E-001	8.182033267286104E-001	2.717359931353712E+001
-6.3734055E-001	7.993384443947864E-001	2.719359931303188E+001
-6.3631910E-001	8.064197866349634E-001	2.721359931252664E+001
-6.3537192E-001	7.949727957861334E-001	2.723359931202140E+001
-6.3434821E-001	8.011860364220222E-001	2.725359931151615E+001
-6.3338619E-001	8.010429794796643E-001	2.727359931101091E+001
-6.3234985E-001	7.982203167242314E-001	2.729359931050567E+001
-6.3131887E-001	7.892188788909067E-001	2.731359931000043E+001
-6.3038009E-001	7.873111968446143E-001	2.733359930949518E+001
-6.2934899E-001	7.591048250388805E-001	2.735359930898994E+001
-6.2833184E-001	7.521558646112698E-001	2.737359930848470E+001
-6.2736869E-001	7.633723616600068E-001	2.739359930797946E+001
-6.2637162E-001	7.764780029861500E-001	2.741359930747421E+001
-6.2534475E-001	7.721132491715235E-001	2.743359930696897E+001
-6.2435836E-001	7.591736942736684E-001	2.745359930646373E+001
-6.2332731E-001	7.584282747573340E-001	2.747359930595849E+001
-6.2233132E-001	7.548319438679343E-001	2.749359930545324E+001
-6.2132144E-001	7.368052150122848E-001	2.751359930494800E+001
-6.2034553E-001	7.356641435374831E-001	2.753359930444276E+001
-6.1937082E-001	7.335418502593232E-001	2.755359930393752E+001
-6.1836630E-001	7.376000914308762E-001	2.757359930343227E+001
-6.1733961E-001	7.369721289724112E-001	2.759359930292703E+001
-6.1637104E-001	7.212796653103517E-001	2.761359930242179E+001
-6.1532831E-001	7.171101520458860E-001	2.763359930191655E+001
-6.1437052E-001	7.162737715471961E-001	2.765359930141130E+001
-6.1337876E-001	7.139403762088885E-001	2.767359930090606E+001
-6.1236358E-001	7.134979309307239E-001	2.769359930040082E+001
-6.1139089E-001	6.870226036860707E-001	2.771359929989558E+001
-6.1038744E-001	6.864997800957000E-001	2.773359929939033E+001
-6.0941589E-001	6.813109992071995E-001	2.775359929888509E+001
-6.0833496E-001	6.676304717548209E-001	2.777359929837985E+001
-6.0733259E-001	6.592092658393138E-001	2.779359929787461E+001
-6.0641080E-001	6.661237428585709E-001	2.781359929736936E+001
-6.0540533E-001	6.711950245727278E-001	2.783359929686412E+001
-6.0437530E-001	6.664470062177230E-001	2.785359929635888E+001
-6.0336542E-001	6.523159986051432E-001	2.787359929585364E+001
-6.0236090E-001	6.446375797192268E-001	2.789359929534839E+001
-6.0140634E-001	6.382945355855778E-001	2.791359929484315E+001
-6.0038799E-001	6.412196353388335E-001	2.793359929433791E+001
-5.9936124E-001	6.353190451756987E-001	2.795359929383267E+001
-5.9837043E-001	6.412699856898856E-001	2.797359929332742E+001
-5.9737873E-001	6.325061238474312E-001	2.799359929282218E+001
-5.9638268E-001	6.413644974430408E-001	2.801359929231694E+001
-5.9535807E-001	6.299448397217535E-001	2.803359929181170E+001
-5.9442878E-001	6.431856291472107E-001	2.805359929130645E+001
-5.9336281E-001	6.306319880920173E-001	2.807359929080121E+001
-5.9239334E-001	6.315964498660644E-001	2.809359929029597E+001
-5.9138137E-001	6.442745939000636E-001	2.811359928979073E+001
-5.9037471E-001	6.350832579967881E-001	2.813359928928548E+001
-5.8939987E-001	6.202872168376210E-001	2.815359928878024E+001
-5.8833176E-001	6.243560226220239E-001	2.817359928827500E+001
-5.8736974E-001	6.144122584309049E-001	2.819359928776976E+001
-5.8633655E-001	6.162289581779010E-001	2.821359928726451E+001
-5.8533841E-001	6.226717844708964E-001	2.823359928675927E+001
-5.8436251E-001	6.335729946796267E-001	2.825359928625403E+001
-5.8330500E-001	6.346919599713572E-001	2.827359928574879E+001
-5.8234298E-001	6.367356938103033E-001	2.829359928524354E+001
-5.8135962E-001	6.444706269539915E-001	2.831359928473830E+001
-5.8033067E-001	6.334678980832313E-001	2.833359928423306E+001
-5.7937813E-001	6.278790492667934E-001	2.835359928372782E+001
-5.7836729E-001	6.155568763303272E-001	2.837359928322257E+001
-5.7737768E-001	5.958635111649873E-001	2.839359928271733E+001
-5.7635927E-001	5.937844996547552E-001	2.841359928221209E+001
-5.7535267E-001	5.982375257752022E-001	2.843359928170685E+001
-5.7437682E-001	6.012147585343994E-001	2.845359928120160E+001
-5.7337660E-001	5.833372811062461E-001	2.847359928069636E+001
-5.7237846E-001	5.894966550792251E-001	2.849359928019112E+001
-5.7138234E-001	5.938304204286817E-001	2.851359927968588E+001
-5.7040864E-001	5.995888009460444E-001	2.853359927918063E+001
-5.6935859E-001	5.934913012509577E-001	2.855359927867539E+001
-5.6839645E-001	5.761949662119168E-001	2.857359927817015E+001
-5.6739402E-001	5.780010757864344E-001	2.859359927766491E+001
-5.6633967E-001	5.820160267564152E-001	2.861359927715966E+001
-5.6531715E-001	6.222222560188859E-001	2.863359927665442E+001
-5.6438053E-001	5.885630874480681E-001	2.865359927614918E+001
-5.6335902E-001	5.840844737572830E-001	2.867359927564394E+001
-5.6234920E-001	5.696187356693869E-001	2.869359927513869E+001
-5.6140941E-001	5.776150998555973E-001	2.871359927463345E+001
-5.6035930E-001	5.696955748523305E-001	2.873359927412821E+001
-5.5931455E-001	5.869415391029621E-001	2.875359927362297E+001
-5.5836409E-001	5.947533435602139E-001	2.877359927311772E+001
-5.5735958E-001	5.819869096287431E-001	2.879359927261248E+001
-5.5637097E-001	5.823569539934415E-001	2.881359927210724E+001
-5.5541629E-001	5.814560693171305E-001	2.883359927160200E+001
-5.5440223E-001	5.701062646177104E-001	2.885359927109675E+001
-5.5340731E-001	5.670857341546141E-001	2.887359927059151E+001
-5.5240065E-001	5.614227755512662E-001	2.889359927008627E+001
-5.5141526E-001	5.690852644232436E-001	2.891359926958103E+001
-5.5040759E-001	5.664763304715361E-001	2.893359926907578E+001
-5.4940617E-001	5.666680263044936E-001	2.895359926857054E+001
-5.4837620E-001	5.858649739271256E-001	2.897359926806530E+001
-5.4740679E-001	5.838318867608905E-001	2.899359926756006E+001
-5.4636514E-001	5.762611884727278E-001	2.901359926705481E+001
-5.4541045E-001	5.574422623030850E-001	2.903359926654957E+001
-5.4436243E-001	5.600582498850111E-001	2.905359926604433E+001
-5.4336965E-001	5.716668535023963E-001	2.907359926553909E+001
-5.4238945E-001	5.842575658009288E-001	2.909359926503384E+001
-5.4137766E-001	6.068936626219927E-001	2.911359926452860E+001
-5.4038364E-001	5.874423134244147E-001	2.913359926402336E+001
-5.3943431E-001	6.024512501123072E-001	2.915359926351812E+001
-5.3841281E-001	6.033123319761629E-001	2.917359926301287E+001
-5.3742218E-001	5.980970987325742E-001	2.919359926250763E+001
-5.3636140E-001	6.087792489367279E-001	2.921359926200239E+001
-5.3537810E-001	6.107735102478826E-001	2.923359926149715E+001
-5.3437775E-001	5.888068787236200E-001	2.925359926099190E+001
-5.3338712E-001	5.722356430358363E-001	2.927359926048666E+001
-5.3240919E-001	5.671917288046755E-001	2.929359925998142E+001
-5.3141516E-001	5.629400398789191E-001	2.931359925947618E+001
-5.3041279E-001	5.507052893129476E-001	2.933359925897093E+001
-5.2939987E-001	5.686578013830710E-001	2.935359925846569E+001
-5.2832860E-001	5.667386836786239E-001	2.937359925796045E+001
-5.2737069E-001	5.596961178299456E-001	2.939359925745521E+001
-5.2637988E-001	5.582274198532120E-001	2.941359925694996E+001
-5.2535629E-001	5.514568517295011E-001	2.943359925644472E+001
-5.2436775E-001	5.725041088234240E-001	2.945359925593948E+001
-5.2339721E-001	5.763088527859939E-001	2.947359925543424E+001
-5.2237046E-001	5.845075311242720E-001	2.949359925492899E+001
-5.2134567E-001	5.880817626602948E-001	2.951359925442375E+001
-5.2038366E-001	5.904982053778269E-001	2.953359925391851E+001
-5.1936960E-001	5.784744789513461E-001	2.955359925341327E+001
-5.1841491E-001	5.728644494795141E-001	2.957359925290802E+001
-5.1739550E-001	5.524637312110965E-001	2.959359925240278E+001
-5.1639420E-001	5.462928793082646E-001	2.961359925189754E+001
-5.1539826E-001	5.474586705677229E-001	2.963359925139230E+001
-5.1440012E-001	5.412763822306372E-001	2.965359925088706E+001
-5.1337850E-001	5.402536583133095E-001	2.967359925038181E+001
-5.1243979E-001	5.439002997138438E-001	2.969359924987657E+001
-5.1135367E-001	5.497470440136070E-001	2.971359924937133E+001
-5.1030254E-001	5.653617840467220E-001	2.973359924886609E+001
-5.0935841E-001	5.669824229035960E-001	2.975359924836084E+001
-5.0833267E-001	5.546072243402422E-001	2.977359924785560E+001
-5.0733775E-001	5.364753570821561E-001	2.979359924735036E+001
-5.0632590E-001	5.256563287435325E-001	2.981359924684512E+001
-5.0533301E-001	5.383645360772005E-001	2.983359924633987E+001
-5.0427747E-001	5.305482937643937E-001	2.985359924583463E+001
-5.0331974E-001	5.069221508585748E-001	2.987359924532939E+001
-5.0235337E-001	5.263628451567577E-001	2.989359924482415E+001
-5.0135106E-001	5.411818767897811E-001	2.991359924431890E+001
-5.0036669E-001	5.281407446083080E-001	2.993359924381366E+001
-4.9933451E-001	5.340687149307790E-001	2.995359924330842E+001
-4.9837035E-001	5.269952366749449E-001	2.997359924280318E+001
-4.9732557E-001	5.341031380618642E-001	2.999359924229793E+001
-4.9632531E-001	5.393324854990684E-001	3.001359924179269E+001
-4.9533978E-001	5.379290964661383E-001	3.003359924128745E+001
-4.9437353E-001	5.337445613307263E-001	3.005359924078221E+001
-4.9333718E-001	5.220944141037762E-001	3.007359924027696E+001
-4.9236026E-001	5.385491057919953E-001	3.009359923977172E+001
-4.9136004E-001	5.348141150445582E-001	3.011359923926648E+001
-4.9035969E-001	5.052608485437116E-001	3.013359923876124E+001
-4.8936793E-001	5.100954823299428E-001	3.015359923825599E+001
-4.8837090E-001	4.987782966086884E-001	3.017359923775075E+001
-4.8734412E-001	5.393872042186558E-001	3.019359923724551E+001
-4.8633105E-001	5.400505099031681E-001	3.021359923674027E+001
-4.8534033E-001	5.317626804527329E-001	3.023359923623502E+001
-4.8429868E-001	5.235728619930695E-001	3.025359923572978E+001
-4.8334619E-001	5.376279360821699E-001	3.027359923522454E+001
-4.8232257E-001	5.252553787496363E-001	3.029359923471930E+001
-4.8132440E-001	5.151357803390262E-001	3.031359923421405E+001
-4.8036131E-001	5.415483743159322E-001	3.033359923370881E+001
-4.7938010E-001	5.258806460640502E-001	3.035359923320357E+001
-4.7835550E-001	5.301146747854872E-001	3.037359923269833E+001
-4.7730741E-001	5.424324836995877E-001	3.039359923219308E+001
-4.7632837E-001	5.402969490840199E-001	3.041359923168784E+001
-4.7539178E-001	5.298346965056320E-001	3.043359923118260E+001
-4.7435760E-001	5.387063001592940E-001	3.045359923067736E+001
-4.7336900E-001	5.462813746287587E-001	3.047359923017211E+001
-4.7234851E-001	5.276593941574319E-001	3.049359922966687E+001
-4.7134405E-001	5.236329255729117E-001	3.051359922916163E+001
-4.7033530E-001	5.402765812145356E-001	3.053359922865639E+001
-4.6935308E-001	5.185396020404167E-001	3.055359922815114E+001
-4.6834108E-001	5.045710792247645E-001	3.057359922764590E+001
-4.6733236E-001	5.158414374002165E-001	3.059359922714066E+001
-4.6636394E-001	5.008237570938157E-001	3.061359922663542E+001
-4.6534038E-001	5.126505275256914E-001	3.063359922613017E+001
-4.6433160E-001	4.922206567652108E-001	3.065359922562493E+001
-4.6338326E-001	5.047115156323532E-001	3.067359922511969E+001
-4.6234694E-001	4.970446164823272E-001	3.069359922461445E+001
-4.6132126E-001	5.014393439826881E-001	3.071359922410920E+001
-4.6033373E-001	4.834620767376485E-001	3.073359922360396E+001
-4.5934927E-001	4.891550923542445E-001	3.075359922309872E+001
-4.5837662E-001	4.666205873816374E-001	3.077359922259348E+001
-4.5735729E-001	4.754100812909505E-001	3.079359922208823E+001
-4.5634431E-001	4.632335686538784E-001	3.081359922158299E+001
-4.5535567E-001	4.573285760771908E-001	3.083359922107775E+001
-4.5437554E-001	4.510349824558944E-001	3.085359922057251E+001
-4.5339972E-001	4.526450224479461E-001	3.087359922006726E+001
-4.5239732E-001	4.374983830170507E-001	3.089359921956202E+001
-4.5135045E-001	4.347375138507523E-001	3.091359921905678E+001
-4.5036492E-001	4.367980187396636E-001	3.093359921855154E+001
-4.4868681E-001	4.473867226010464E-001	3.096859921766736E+001
-4.4688791E-001	4.732174361900743E-001	3.100359921678319E+001
-4.4586745E-001	4.649938759394008E-001	3.102359921627794E+001
-4.4487995E-001	4.504710499766409E-001	3.104359921577270E+001
-4.4385102E-001	4.604233667099251E-001	3.106359921526746E+001
-4.4288158E-001	4.654681353001962E-001	3.108359921476222E+001
-4.4180062E-001	4.757748411243998E-001	3.110359921425697E+001
-4.4094458E-001	4.794213683085715E-001	3.112359921375173E+001
-4.3989453E-001	4.876137229924407E-001	3.114359921324649E+001
-4.3888047E-001	4.673531429790394E-001	3.116359921274125E+001
-4.3793222E-001	4.580260007124819E-001	3.118359921223600E+001
-4.3684915E-001	4.631040040403605E-001	3.120359921173076E+001
-4.3584466E-001	4.566572248521759E-001	3.122359921122552E+001
-4.3489000E-001	4.691330315027802E-001	3.124359921072028E+001
-4.3384945E-001	4.693145546027369E-001	3.126359921021503E+001
-4.3283957E-001	4.762327722532480E-001	3.128359920970979E+001
-4.3184674E-001	4.548014774659865E-001	3.130359920920455E+001
-4.3085817E-001	4.598671082510704E-001	3.132359920869931E+001
-4.2983988E-001	4.635848270004832E-001	3.134359920819406E+001
-4.2887467E-001	4.604849383855854E-001	3.136359920768882E+001
-4.2786554E-001	4.805921301054664E-001	3.138369920718105E+001
-4.2688671E-001	4.938460146232195E-001	3.140359920667834E+001
-4.2587292E-001	4.938071998346747E-001	3.142379920616804E+001
-4.2486843E-001	4.979480401009209E-001	3.144359920566785E+001
-4.2381582E-001	5.063077039964909E-001	3.146379920515756E+001
-4.2286447E-001	4.964111060576704E-001	3.148379920465231E+001
-4.2189080E-001	4.851994091748342E-001	3.150379920414707E+001
-4.2083219E-001	4.765998060401127E-001	3.152379920364183E+001
-4.1986588E-001	4.751997013938516E-001	3.154379920313659E+001
-4.1887721E-001	4.978693814223876E-001	3.156379920263134E+001
-4.1788015E-001	4.963538855728196E-001	3.158379920212610E+001
-4.1686082E-001	5.052755385533798E-001	3.160379920162086E+001
-4.1587225E-001	4.915810714786248E-001	3.162379920111562E+001
-4.1491860E-001	4.997743314339065E-001	3.164379920061037E+001
-4.1385466E-001	5.084175069609458E-001	3.166379920010513E+001
-4.1291702E-001	4.829235494705930E-001	3.168379919959989E+001
-4.1185099E-001	4.983634260586562E-001	3.170379919909465E+001
-4.1087943E-001	5.037458116292122E-001	3.172379919858940E+001
-4.0984300E-001	4.954114177574720E-001	3.174379919808416E+001
-4.0883851E-001	4.824325652120418E-001	3.176379919757892E+001
-4.0782765E-001	4.822902590709006E-001	3.178379919707368E+001
-4.0684968E-001	4.767588387864338E-001	3.180379919656843E+001
-4.0587163E-001	4.770350526345695E-001	3.182379919606319E+001
-4.0482152E-001	4.658224586035241E-001	3.184379919555795E+001
-4.0389764E-001	4.552480927409821E-001	3.186379919505271E+001
-4.0287405E-001	4.628898845985545E-001	3.188379919454746E+001
-4.0194568E-001	4.488437640247875E-001	3.190279919406748E+001
-4.0132740E-001	4.432737380266190E-001	3.191239919382497E+001