Ewe/V	<I>/mA	time/s	
-4.0949926E-001	1.185971379280090E+000	0.000000000000000E+000
-4.0994456E-001	1.174468138180675E+000	6.199999843374826E-003
-4.1099852E-001	1.113883339725440E+000	1.739999956043903E-002
-4.1198581E-001	1.080574502665552E+000	2.839999928255565E-002
-4.1298112E-001	1.072218187768018E+000	3.959999899961986E-002
-4.1397706E-001	1.062414322569968E+000	5.059999872173648E-002
-4.1495293E-001	1.048205217402430E+000	6.179999843880069E-002
-4.1594231E-001	1.027353866063057E+000	7.279999816091731E-002
-4.1697827E-001	9.798796861339394E-001	8.399999787798151E-002
-4.1794309E-001	9.473914346843948E-001	9.499999760009814E-002
-4.1898477E-001	9.223995065502812E-001	1.061999973171623E-001
-4.1997880E-001	9.073440647497772E-001	1.173999970342265E-001
-4.2098674E-001	9.134884181246203E-001	1.283999967563432E-001
-4.2198396E-001	9.053559818863892E-001	1.395999964734074E-001
-4.2297217E-001	8.904871595464670E-001	1.505999961955240E-001
-4.2399180E-001	8.856101678591273E-001	1.617999959125882E-001
-4.2498350E-001	8.680963213462398E-001	1.727999956347048E-001
-4.2594248E-001	8.604793203901480E-001	1.839999953517690E-001
-4.2697430E-001	8.458568906132165E-001	1.951999950688332E-001
-4.2791903E-001	8.032379223685742E-001	2.061999947909499E-001
-4.2897511E-001	7.704712307639436E-001	2.173999945080141E-001
-4.2994598E-001	7.321455362252891E-001	2.283999942301307E-001
-4.3095425E-001	7.182013216428462E-001	2.395999939471949E-001
-4.3194920E-001	7.272898617759376E-001	2.505999936693115E-001
-4.3294552E-001	7.115660716500152E-001	2.617999933863757E-001
-4.3393338E-001	7.003231431264432E-001	2.727999931084923E-001
-4.3494490E-001	6.920610007829962E-001	2.839999928255565E-001
-4.3598372E-001	6.839920891914550E-001	2.951999925426207E-001
-4.3701786E-001	6.814516975451301E-001	3.061999922647374E-001
-4.3801489E-001	6.753804749622971E-001	3.173999919818016E-001
-4.3902355E-001	6.546652287244819E-001	3.283999917039182E-001
-4.4005421E-001	6.360462442599237E-001	3.395999914209824E-001
-4.4097358E-001	6.175086380448223E-001	3.505999911430990E-001
-4.4195858E-001	6.169455434288871E-001	3.617999908601632E-001
-4.4298768E-001	6.117954817414315E-001	3.727999905822799E-001
-4.4394481E-001	6.012376963905997E-001	3.839999902993441E-001
-4.4497910E-001	6.060879613179715E-001	3.951999900164083E-001
-4.4595209E-001	5.925189183745538E-001	4.061999897385249E-001
-4.4695815E-001	5.787651324085914E-001	4.173999894555891E-001
-4.4794849E-001	5.590171291213513E-001	4.283999891777057E-001
-4.4899538E-001	5.420924831647440E-001	4.395999888947699E-001
-4.4997671E-001	5.486482255067680E-001	4.505999886168865E-001
-4.5099041E-001	5.422867382969727E-001	4.617999883339508E-001
-4.5199832E-001	5.409889003448196E-001	4.727999880560674E-001
-4.5294997E-001	5.369060814753173E-001	4.839999877731316E-001
-4.5397064E-001	5.229014829173728E-001	4.951999874901958E-001
-4.5492855E-001	5.115176904201535E-001	5.061999872123124E-001
-4.5599338E-001	5.124079068284502E-001	5.173999869293766E-001
-4.5699054E-001	5.220687431469577E-001	5.283999866514932E-001
-4.5795804E-001	5.252231238689289E-001	5.395999863685574E-001
-4.5895508E-001	5.159285737853501E-001	5.505999860906741E-001
-4.5998096E-001	5.149015805311523E-001	5.617999858077383E-001
-4.6099404E-001	5.113440786581509E-001	5.727999855298549E-001
-4.6196297E-001	5.120314896106724E-001	5.839999852469191E-001
-4.6302286E-001	5.085808428935703E-001	5.951999849639833E-001
-4.6399051E-001	4.927874447312206E-001	6.061999846860999E-001
-4.6496677E-001	4.755546915810562E-001	6.173999844031641E-001
-4.6594465E-001	4.606562908878558E-001	6.283999841252808E-001
-4.6693790E-001	4.514695337414758E-001	6.395999838423450E-001
-4.6792591E-001	4.438674229802579E-001	6.505999835644616E-001
-4.6895534E-001	4.352217967901382E-001	6.617999832815258E-001
-4.6991780E-001	4.387522886693476E-001	6.727999830036424E-001
-4.7098354E-001	4.286882893834278E-001	6.839999827207066E-001
-4.7198227E-001	4.211491318047058E-001	6.951999824377708E-001
-4.7563958E-001	4.050841144705188E-001	7.361999814020237E-001
-4.7665378E-001	3.947633475065246E-001	7.473999811190879E-001
-4.7766441E-001	4.004997056815771E-001	7.583999808412045E-001
-4.7869524E-001	3.907000277051713E-001	7.695999805582687E-001
-4.7962570E-001	3.812392985215416E-001	7.805999802803854E-001
-4.8064983E-001	3.806423144647848E-001	7.917999799974496E-001
-4.8166364E-001	3.758779144380251E-001	8.027999797195662E-001
-4.8260057E-001	3.705683449888610E-001	8.139999794366304E-001
-4.8362452E-001	3.658668133802727E-001	8.251999791536946E-001
-4.8461562E-001	3.719749261718253E-001	8.361999788758112E-001
-4.8561665E-001	3.834351924154924E-001	8.473999785928754E-001
-4.8667482E-001	3.883119453396660E-001	8.583999783149920E-001
-4.8767722E-001	3.900797086954115E-001	8.695999780320562E-001
-4.8862520E-001	3.803617332782596E-001	8.805999777541729E-001
-4.8968315E-001	3.749908706452700E-001	8.917999774712371E-001
-4.9062404E-001	3.631681750714790E-001	9.027999771933537E-001
-4.9163654E-001	3.645121063198893E-001	9.139999769104179E-001
-4.9264506E-001	3.587262422824287E-001	9.251999766274821E-001
-4.9363139E-001	3.523909358587112E-001	9.361999763495987E-001
-4.9464983E-001	3.508387277415022E-001	9.473999760666629E-001
-4.9560264E-001	3.525947833759728E-001	9.583999757887796E-001
-4.9667677E-001	3.581473317928614E-001	9.695999755058438E-001
-4.9765298E-001	3.610337443836045E-001	9.805999752279604E-001
-4.9865383E-001	3.582956274831677E-001	9.917999749450246E-001
-4.9963021E-001	3.519403924141085E-001	1.002799974667141E+000
-5.0064486E-001	3.420085706096145E-001	1.013999974384205E+000
-5.0165933E-001	3.324278509523726E-001	1.025199974101270E+000
-5.0267005E-001	3.316896254615875E-001	1.036199973823386E+000
-5.0366634E-001	3.286925191385675E-001	1.047399973540450E+000
-5.0463784E-001	3.251610120525599E-001	1.058399973262567E+000
-5.0561750E-001	3.212127647595486E-001	1.069599972979631E+000
-5.0665003E-001	3.143763881316417E-001	1.080599972701748E+000
-5.0765336E-001	3.071797462599364E-001	1.091799972418812E+000
-5.0863189E-001	3.086808623373504E-001	1.102799972140929E+000
-5.0969982E-001	3.055594210326680E-001	1.113999971857993E+000
-5.1063365E-001	3.052946525020523E-001	1.125199971575057E+000
-5.1164556E-001	3.098461658554161E-001	1.136199971297174E+000
-5.1276457E-001	3.124316611886031E-001	1.147399971014238E+000
-5.1372904E-001	3.123279016790930E-001	1.158399970736355E+000
-5.1469612E-001	3.119468662142770E-001	1.169599970453419E+000
-5.1570725E-001	3.117200653254999E-001	1.180599970175535E+000
-5.1675123E-001	3.092814781749631E-001	1.191799969892600E+000
-5.1771516E-001	2.984766252245761E-001	1.202799969614716E+000
-5.1870710E-001	2.966897421982138E-001	1.213999969331780E+000
-5.1969051E-001	2.874732353677985E-001	1.225199969048845E+000
-5.2070069E-001	2.918111883802350E-001	1.236199968770961E+000
-5.2172458E-001	2.897257577069112E-001	1.247399968488025E+000
-5.2265549E-001	2.892252177000041E-001	1.258399968210142E+000
-5.2372670E-001	2.855012457957500E-001	1.269599967927206E+000
-5.2465832E-001	2.863317930605263E-001	1.280599967649323E+000
-5.2571428E-001	2.841589950630441E-001	1.291799967366387E+000
-5.2666324E-001	2.766153868427508E-001	1.302799967088504E+000
-5.2770293E-001	2.732784348633146E-001	1.313999966805568E+000
-5.2873772E-001	2.742703356035054E-001	1.325199966522632E+000
-5.2970695E-001	2.684022478060811E-001	1.336199966244749E+000
-5.3070033E-001	2.604635392315700E-001	1.347399965961813E+000
-5.3165656E-001	2.635998717043555E-001	1.358399965683930E+000
-5.3268981E-001	2.628143087821093E-001	1.369599965400994E+000
-5.3366739E-001	2.615462175803276E-001	1.380599965123110E+000
-5.3469968E-001	2.594420275092135E-001	1.391799964840175E+000
-5.3571236E-001	2.570497640967377E-001	1.402799964562291E+000
-5.3669518E-001	2.560870117135345E-001	1.413999964279355E+000
-5.3772467E-001	2.591148660471676E-001	1.425199963996420E+000
-5.3869516E-001	2.600721734156847E-001	1.436199963718536E+000
-5.3972465E-001	2.549571906728678E-001	1.447399963435601E+000
-5.4069823E-001	2.550516077876104E-001	1.458399963157717E+000
-5.4171360E-001	2.568544397456578E-001	1.469599962874781E+000
-5.4267567E-001	2.565212361002356E-001	1.480599962596898E+000
-5.4367727E-001	2.559475538926219E-001	1.491799962313962E+000
-5.4467416E-001	2.626607480132961E-001	1.502799962036079E+000
-5.4570675E-001	2.620661953371028E-001	1.513999961753143E+000
-5.4671335E-001	2.538931682007393E-001	1.525199961470207E+000
-5.4773480E-001	2.519680610485384E-001	1.536199961192324E+000
-5.4873407E-001	2.545104428520437E-001	1.547399960909388E+000
-5.4965937E-001	2.537197087518868E-001	1.558399960631505E+000
-5.5069572E-001	2.519150612410161E-001	1.569599960348569E+000
-5.5166852E-001	2.525470631010824E-001	1.580599960070685E+000
-5.5272764E-001	2.544943298399467E-001	1.591799959787750E+000
-5.5364579E-001	2.509107194002729E-001	1.602799959509866E+000
-5.5472249E-001	2.511341546475887E-001	1.613999959226931E+000
-5.5569720E-001	2.512181615037843E-001	1.625199958943995E+000
-5.5669653E-001	2.531277334969495E-001	1.636199958666111E+000
-5.5765045E-001	2.531347613222912E-001	1.647399958383176E+000
-5.5867076E-001	2.514906576368969E-001	1.658399958105292E+000
-5.5966818E-001	2.500128363678238E-001	1.669599957822356E+000
-5.6065685E-001	2.498460499336952E-001	1.680599957544473E+000
-5.6169087E-001	2.454324519634251E-001	1.691799957261537E+000
-5.6259531E-001	2.427539212256677E-001	1.702799956983654E+000
-5.6367886E-001	2.442237014416613E-001	1.713999956700718E+000
-5.6466413E-001	2.475790090858939E-001	1.725199956417782E+000
-5.6565136E-001	2.469642986496918E-001	1.736199956139899E+000
-5.6666064E-001	2.514488691883171E-001	1.747399955856963E+000
-5.6764829E-001	2.478702837321909E-001	1.758399955579080E+000
-5.6865686E-001	2.495395463891330E-001	1.769599955296144E+000
-5.6964225E-001	2.474828842375427E-001	1.780599955018261E+000
-5.7068872E-001	2.493709472613421E-001	1.791799954735325E+000
-5.7165688E-001	2.481716579990464E-001	1.802799954457441E+000
-5.7265186E-001	2.373595740902239E-001	1.813999954174506E+000
-5.7367951E-001	2.307515827007594E-001	1.825199953891570E+000
-5.7469100E-001	2.218944984511477E-001	1.836199953613686E+000
-5.7563782E-001	2.218541384581485E-001	1.847399953330751E+000
-5.7663500E-001	2.260502528748480E-001	1.858399953052867E+000
-5.7768136E-001	2.245769153721637E-001	1.869599952769931E+000
-5.7867116E-001	2.198018101206982E-001	1.880599952492048E+000
-5.7964832E-001	2.192574374168181E-001	1.891799952209112E+000
-5.8070266E-001	2.182323296554385E-001	1.902799951931229E+000
-5.8168924E-001	2.140337981330233E-001	1.913999951648293E+000
-5.8267313E-001	2.162849688832647E-001	1.925199951365357E+000
-5.8364260E-001	2.149998506787236E-001	1.936199951087474E+000
-5.8465528E-001	2.146336021367463E-001	1.947399950804538E+000
-5.8565944E-001	2.116862468561154E-001	1.958399950526655E+000
-5.8662403E-001	2.081993650994263E-001	1.969599950243719E+000
-5.8769119E-001	2.025016681896530E-001	1.980599949965836E+000
-5.8873969E-001	2.028081509424378E-001	1.991799949682900E+000
-5.8963364E-001	2.037066030339343E-001	2.002799949405016E+000
-5.9070009E-001	2.023134147468957E-001	2.013999949122081E+000
-5.9172761E-001	2.035530155454768E-001	2.025199948839145E+000
-5.9265250E-001	2.008999517117633E-001	2.036199948561261E+000
-5.9372526E-001	1.996658135205512E-001	2.047399948278326E+000
-5.9467965E-001	1.966143883462068E-001	2.058399948000442E+000
-5.9567875E-001	1.950197340548037E-001	2.069599947717506E+000
-5.9668601E-001	1.970272651314743E-001	2.080599947439623E+000
-5.9767717E-001	1.943950331956152E-001	2.091799947156687E+000
-5.9869182E-001	1.981800550827755E-001	2.102799946878804E+000
-5.9966099E-001	2.000404038140555E-001	2.113999946595868E+000
-6.0067964E-001	2.013264439301573E-001	2.125199946312932E+000
-6.0166919E-001	2.011886203871116E-001	2.136199946035049E+000
-6.0272694E-001	1.981123172282251E-001	2.147399945752113E+000
-6.0367757E-001	1.974575675674720E-001	2.158399945474230E+000
-6.0468936E-001	1.991611672029832E-001	2.169599945191294E+000
-6.0564709E-001	1.987267775530928E-001	2.180599944913411E+000
-6.0666752E-001	1.936474145599643E-001	2.191799944630475E+000
-6.0764664E-001	1.946056437445804E-001	2.202799944352591E+000
-6.0867643E-001	1.948061126517139E-001	2.213999944069656E+000
-6.0965967E-001	1.956702505261640E-001	2.225199943786720E+000
-6.1065769E-001	1.921655628038574E-001	2.236199943508836E+000
-6.1167395E-001	1.830819522938694E-001	2.247399943225901E+000
-6.1263192E-001	1.800930101168339E-001	2.258399942948017E+000
-6.1363119E-001	1.769871358131061E-001	2.269599942665081E+000
-6.1465800E-001	1.762302705785261E-001	2.280599942387198E+000
-6.1567241E-001	1.762131296098238E-001	2.291799942104262E+000
-6.1664641E-001	1.762799782352529E-001	2.302799941826379E+000
-6.1764973E-001	1.759772356343463E-001	2.313999941543443E+000
-6.1869377E-001	1.751035562856123E-001	2.325199941260507E+000
-6.1964709E-001	1.734152392996480E-001	2.336199940982624E+000
-6.2068516E-001	1.763086630450563E-001	2.347399940699688E+000
-6.2160587E-001	1.737005311390392E-001	2.358399940421805E+000
-6.2263995E-001	1.699229903914972E-001	2.369599940138869E+000
-6.2364501E-001	1.668971200333911E-001	2.380599939860986E+000
-6.2463665E-001	1.683372973254889E-001	2.391799939578050E+000
-6.2563986E-001	1.696270135487437E-001	2.402799939300166E+000
-6.2663037E-001	1.706975231319667E-001	2.413999939017231E+000
-6.2766445E-001	1.694443168491127E-001	2.425199938734295E+000
-6.2867278E-001	1.666382993059236E-001	2.436199938456411E+000
-6.2962472E-001	1.684441094845539E-001	2.447399938173476E+000
-6.3063729E-001	1.676599218696361E-001	2.458399937895592E+000
-6.3165432E-001	1.668323405040431E-001	2.469599937612657E+000
-6.3263667E-001	1.627707498613753E-001	2.480599937334773E+000
-6.3366759E-001	1.628831669781365E-001	2.491799937051837E+000
-6.3464564E-001	1.625830522179605E-001	2.502799936773954E+000
-6.3562685E-001	1.601638598693533E-001	2.513999936491018E+000
-6.3662368E-001	1.606549640838064E-001	2.525199936208082E+000
-6.3759744E-001	1.548054263135428E-001	2.536199935930199E+000
-6.3866270E-001	1.507048059743834E-001	2.547399935647263E+000
-6.3967478E-001	1.479472917667590E-001	2.558399935369380E+000
-6.4066803E-001	1.478052299120466E-001	2.569599935086444E+000
-6.4166027E-001	1.490036252932624E-001	2.580599934808561E+000
-6.4264965E-001	1.471184839797210E-001	2.591799934525625E+000
-6.4363998E-001	1.472766279475770E-001	2.602799934247741E+000
-6.4464259E-001	1.447699264134283E-001	2.613999933964806E+000
-6.4568472E-001	1.437400040123613E-001	2.625199933681870E+000
-6.4666593E-001	1.418786940770228E-001	2.636199933403987E+000
-6.4770132E-001	1.399850053689446E-001	2.647399933121051E+000
-6.4867353E-001	1.395778965647336E-001	2.658399932843167E+000
-6.4965987E-001	1.387311655632218E-001	2.669599932560232E+000
-6.5067410E-001	1.364635965228082E-001	2.680599932282348E+000
-6.5162760E-001	1.382660167757424E-001	2.691799931999412E+000
-6.5263575E-001	1.389970535924663E-001	2.702799931721529E+000
-6.5368497E-001	1.364289257023483E-001	2.713999931438593E+000
-6.5467590E-001	1.306671056896449E-001	2.725199931155657E+000
-6.5566295E-001	1.314697516662999E-001	2.736199930877774E+000
-6.5665007E-001	1.332953249616546E-001	2.747399930594838E+000
-6.5768415E-001	1.358398832078092E-001	2.758399930316955E+000
-6.5865391E-001	1.357905610394670E-001	2.769599930034019E+000
-6.5964520E-001	1.355736759398134E-001	2.780599929756136E+000
-6.6066635E-001	1.334264328423886E-001	2.791799929473200E+000
-6.6165227E-001	1.283842604258107E-001	2.802799929195317E+000
-6.6264588E-001	1.250590955466035E-001	2.813999928912381E+000
-6.6363662E-001	1.242728136572988E-001	2.825199928629445E+000
-6.6464281E-001	1.252506546769294E-001	2.836199928351562E+000
-6.6564906E-001	1.237523270817474E-001	2.847399928068626E+000
-6.6666842E-001	1.209650367626454E-001	2.858399927790742E+000
-6.6766107E-001	1.206919845391535E-001	2.869599927507807E+000
-6.6862983E-001	1.198984587285667E-001	2.880599927229923E+000
-6.6965991E-001	1.184902506566143E-001	2.891799926946987E+000
-6.7065734E-001	1.176820279727688E-001	2.902799926669104E+000
-6.7164665E-001	1.162892959662717E-001	2.913999926386168E+000
-6.7266059E-001	1.179354746220636E-001	2.925199926103232E+000
-6.7361522E-001	1.197749163431583E-001	2.936199925825349E+000
-6.7466879E-001	1.166477244498676E-001	2.947399925542413E+000
-6.7560250E-001	1.150157360651067E-001	2.958399925264530E+000
-6.7663556E-001	1.141650893935003E-001	2.969599924981594E+000
-6.7763716E-001	1.168662967905402E-001	2.980599924703711E+000
-6.7861229E-001	1.177345940622037E-001	2.991799924420775E+000
-6.7961884E-001	1.134879530838221E-001	3.002799924142892E+000
-6.8063635E-001	1.127277824829798E-001	3.013999923859956E+000
-6.8162364E-001	1.160839610674891E-001	3.025199923577020E+000
-6.8262464E-001	1.167342904140241E-001	3.036199923299137E+000
-6.8363452E-001	1.160832591285001E-001	3.047399923016201E+000
-6.8462068E-001	1.145521689008457E-001	3.058399922738317E+000
-6.8562329E-001	1.139715489128137E-001	3.069599922455382E+000
-6.8662238E-001	1.125413950288205E-001	3.080599922177498E+000
-6.8768555E-001	1.118562730029227E-001	3.091799921894562E+000
-6.8863672E-001	1.113657142617742E-001	3.102799921616679E+000
-6.8963456E-001	1.113062156806701E-001	3.113999921333743E+000
-6.9065243E-001	1.108495777077048E-001	3.125199921050807E+000
-6.9163132E-001	1.111902330571319E-001	3.136199920772924E+000
-6.9267601E-001	1.109667639830154E-001	3.147399920489988E+000
-6.9363630E-001	1.128827139118220E-001	3.158399920212105E+000
-6.9465989E-001	1.117556180653628E-001	3.169599919929169E+000
-6.9565099E-001	1.117061077803375E-001	3.180599919651286E+000
-6.9668275E-001	1.126138377259489E-001	3.191799919368350E+000
-6.9762099E-001	1.128612784540746E-001	3.202799919090467E+000
-6.9862801E-001	1.105057796358597E-001	3.213999918807531E+000
-6.9967747E-001	1.093312739057004E-001	3.225199918524595E+000
-7.0060283E-001	1.057920456305149E-001	3.236199918246712E+000
-7.0164204E-001	1.064902656280902E-001	3.247399917963776E+000
-7.0263839E-001	1.070440213684924E-001	3.258399917685892E+000
-7.0365447E-001	1.076736118167170E-001	3.269599917402957E+000
-7.0464194E-001	1.084262791997754E-001	3.280599917125073E+000
-7.0566344E-001	1.071558645716870E-001	3.291799916842137E+000
-7.0661199E-001	1.062585060368295E-001	3.302799916564254E+000
-7.0768267E-001	1.080527131981217E-001	3.313999916281318E+000
-7.0861846E-001	1.073615527816587E-001	3.325199915998382E+000
-7.0964640E-001	1.066438057518100E-001	3.336199915720499E+000
-7.1065319E-001	1.064862321142576E-001	3.347399915437563E+000
-7.1164244E-001	1.053020584408663E-001	3.358399915159680E+000
-7.1265090E-001	1.030713064142041E-001	3.369599914876744E+000
-7.1364260E-001	9.922539159422761E-002	3.380599914598861E+000
-7.1458757E-001	9.965903381235008E-002	3.391799914315925E+000
-7.1563172E-001	9.879270598990830E-002	3.402799914038042E+000
-7.1667784E-001	9.976858400506883E-002	3.413999913755106E+000
-7.1771038E-001	9.837681515957231E-002	3.425199913472170E+000
-7.1868050E-001	9.753080930328006E-002	3.436199913194287E+000
-7.1968585E-001	9.630558416014545E-002	3.447399912911351E+000
-7.2066104E-001	9.561006525414983E-002	3.458399912633467E+000
-7.2169155E-001	9.476333158207129E-002	3.469599912350532E+000
-7.2267723E-001	9.385703584295702E-002	3.480599912072648E+000
-7.2366470E-001	9.462162884068745E-002	3.491799911789713E+000
-7.2468346E-001	9.498129594838245E-002	3.502799911511829E+000
-7.2567379E-001	9.753017635666783E-002	3.513999911228893E+000
-7.2667921E-001	9.968231124221338E-002	3.525199910945958E+000
-7.2772431E-001	9.833070269436606E-002	3.536199910668074E+000
-7.2871047E-001	9.585013093310424E-002	3.547399910385138E+000
-7.2968119E-001	9.239905532915182E-002	3.558399910107255E+000
-7.3062766E-001	9.229554140823892E-002	3.569599909824319E+000
-7.3165232E-001	9.188826959580199E-002	3.580599909546436E+000
-7.3267096E-001	8.853046323871228E-002	3.591799909263500E+000
-7.3366362E-001	8.815209666616342E-002	3.602799908985617E+000
-7.3467141E-001	8.886536069214357E-002	3.613999908702681E+000
-7.3570794E-001	8.865349784726317E-002	3.625199908419745E+000
-7.3667878E-001	8.723619485390388E-002	3.636199908141862E+000
-7.3772877E-001	8.727922012680223E-002	3.647399907858926E+000
-7.3868454E-001	8.561443519080059E-002	3.658399907581043E+000
-7.3966706E-001	8.475497897481543E-002	3.669599907298107E+000
-7.4064183E-001	8.467350857448802E-002	3.680599907020223E+000
-7.4164933E-001	8.453997977077983E-002	3.691799906737288E+000
-7.4266356E-001	8.351871608407269E-002	3.702799906459404E+000
-7.4370372E-001	8.141416296362884E-002	3.713999906176468E+000
-7.4472195E-001	8.174779096501905E-002	3.725199905893533E+000
-7.4568236E-001	8.146764965611519E-002	3.736199905615649E+000
-7.4670595E-001	8.177131649572456E-002	3.747399905332713E+000
-7.4772865E-001	8.050955173093860E-002	3.758399905054830E+000
-7.4868268E-001	8.024636506801475E-002	3.769599904771894E+000
-7.4964821E-001	8.138687348342522E-002	3.780599904494011E+000
-7.5070494E-001	8.079465238261041E-002	3.791799904211075E+000
-7.5166959E-001	7.950750232208526E-002	3.802799903933192E+000
-7.5270069E-001	7.953886211384087E-002	3.813999903650256E+000
-7.5368714E-001	7.873241325723956E-002	3.825199903367320E+000
-7.5468057E-001	7.828151194262323E-002	3.836199903089437E+000
-7.5567764E-001	7.771596090751709E-002	3.847399902806501E+000
-7.5664335E-001	7.768613059073695E-002	3.858399902528618E+000
-7.5766850E-001	7.822442028904381E-002	3.869599902245682E+000
-7.5864238E-001	7.640388343250382E-002	3.880599901967798E+000
-7.5964165E-001	7.430269589996936E-002	3.891799901684863E+000
-7.6065487E-001	7.446942415321278E-002	3.902799901406979E+000
-7.6164842E-001	7.438900142675287E-002	3.913999901124043E+000
-7.6264030E-001	7.374763998901468E-002	3.925199900841108E+000
-7.6366639E-001	7.365357108647028E-002	3.936199900563224E+000
-7.6467121E-001	7.636422533541931E-002	3.947399900280288E+000
-7.6565742E-001	7.316861079656523E-002	3.958399900002405E+000
-7.6668733E-001	7.141627511358839E-002	3.969599899719469E+000
-7.6768208E-001	7.027153443312306E-002	3.980599899441586E+000
-7.6862746E-001	6.855549391126270E-002	3.991799899158650E+000
-7.6964647E-001	6.717402596259503E-002	4.002799898880767E+000
-7.7065504E-001	6.718906840425937E-002	4.013999898597831E+000
-7.7165961E-001	6.572039576829436E-002	4.025199898314895E+000
-7.7266949E-001	6.283655762788859E-002	4.036199898037012E+000
-7.7366388E-001	6.242336970404749E-002	4.047399897754076E+000
-7.7463210E-001	6.205046858638530E-002	4.058399897476193E+000
-7.7565682E-001	6.160102941445067E-002	4.069599897193257E+000
-7.7663225E-001	6.082603608199899E-002	4.080599896915373E+000
-7.7762604E-001	6.016168206697337E-002	4.091799896632438E+000
-7.7865010E-001	5.945010593801303E-002	4.102799896354554E+000
-7.7965719E-001	5.888255174795631E-002	4.113999896071618E+000
-7.8065038E-001	5.773679492995168E-002	4.125199895788683E+000
-7.8163493E-001	5.739820877730395E-002	4.136199895510799E+000
-7.8267282E-001	5.671623410889887E-002	4.147399895227863E+000
-7.8364652E-001	5.685618980496665E-002	4.158399894949980E+000
-7.8464341E-001	5.820939077413656E-002	4.169599894667044E+000
-7.8567761E-001	5.832648029783738E-002	4.180599894389161E+000
-7.8666234E-001	5.736268501612385E-002	4.191799894106225E+000
-7.8760582E-001	5.777390466770171E-002	4.202799893828342E+000
-7.8865850E-001	5.639625442388940E-002	4.213999893545406E+000
-7.8967363E-001	5.530576527758968E-002	4.225199893262470E+000
-7.9067349E-001	5.435243451735006E-002	4.236199892984587E+000
-7.9166698E-001	5.402154726383746E-002	4.247399892701651E+000
-7.9263347E-001	5.362581572670033E-002	4.258399892423768E+000
-7.9367703E-001	5.406772002694199E-002	4.269599892140832E+000
-7.9467160E-001	5.427735636883876E-002	4.280599891862948E+000
-7.9564542E-001	5.372484461462601E-002	4.291799891580013E+000
-7.9667783E-001	5.319151096511621E-002	4.302799891302129E+000
-7.9765153E-001	5.252279654901937E-002	4.313999891019193E+000
-7.9864204E-001	5.234305687597962E-002	4.325199890736258E+000
-7.9964691E-001	5.242424586031114E-002	4.336199890458374E+000
-8.0065328E-001	5.188025668903729E-002	4.347399890175438E+000
-8.0166638E-001	5.181391961115889E-002	4.358399889897555E+000
-8.0266923E-001	5.058936138811987E-002	4.369599889614619E+000
-8.0361623E-001	4.907124248042227E-002	4.380599889336736E+000
-8.0467892E-001	4.948643722280410E-002	4.391799889053800E+000
-8.0566674E-001	4.866502556904728E-002	4.402899888773391E+000
-8.0666071E-001	4.779735934105726E-002	4.413999888492981E+000
-8.0765897E-001	4.732963067537654E-002	4.425199888210045E+000
-8.0861992E-001	4.720201366755655E-002	4.436199887932162E+000
-8.0969465E-001	4.720458663010518E-002	4.447399887649226E+000
-8.1068534E-001	4.680485185119332E-002	4.458399887371343E+000
-8.1166375E-001	4.586395191901843E-002	4.469599887088407E+000
-8.1267035E-001	4.542077569174585E-002	4.480599886810523E+000
-8.1364638E-001	4.504704852646693E-002	4.491799886527588E+000
-8.1467307E-001	4.482314010325368E-002	4.502999886244652E+000
-8.1565392E-001	4.417939053848396E-002	4.513999885966768E+000
-8.1666690E-001	4.476519665622623E-002	4.525199885683833E+000
-8.1898445E-001	4.369380049300786E-002	4.551199885027017E+000
-8.2145524E-001	4.232525554660249E-002	4.577399884365150E+000
-8.2243246E-001	4.187854084477322E-002	4.588399884087266E+000
-8.2339704E-001	4.156855994195208E-002	4.599599883804331E+000
-8.2442558E-001	4.177864759520156E-002	4.610599883526447E+000
-8.2540983E-001	4.123908267531104E-002	4.621799883243511E+000
-8.2640195E-001	4.005044731369703E-002	4.632999882960576E+000
-8.2741904E-001	3.925838187220521E-002	4.643999882682692E+000
-8.2843763E-001	3.952713624632470E-002	4.655199882399756E+000
-8.2940966E-001	3.778363385295973E-002	4.666199882121873E+000
-8.3044493E-001	3.679579133284282E-002	4.677399881838937E+000
-8.3139485E-001	3.629234456631827E-002	4.688399881561054E+000
-8.3243459E-001	3.680108807981031E-002	4.699599881278118E+000
-8.3338428E-001	3.695505417010297E-002	4.710599881000235E+000
-8.3444315E-001	3.684123499202563E-002	4.721799880717299E+000
-8.3541703E-001	3.707527803489957E-002	4.732999880434363E+000
-8.3641320E-001	3.691979867464402E-002	4.743999880156480E+000
-8.3737034E-001	3.761203342408403E-002	4.755199879873544E+000
-8.3837754E-001	3.707777208706864E-002	4.766199879595661E+000
-8.3939177E-001	3.691627755761157E-002	4.777399879312725E+000
-8.4041470E-001	3.663825730211112E-002	4.788399879034841E+000
-8.4141839E-001	3.594826638931425E-002	4.799599878751906E+000
-8.4233892E-001	3.496329770248863E-002	4.810599878474022E+000
-8.4338218E-001	3.462085498496902E-002	4.821799878191086E+000
-8.4441727E-001	3.461354531347760E-002	4.832999877908151E+000
-8.4540409E-001	3.453676750883475E-002	4.843999877630267E+000
-8.4638506E-001	3.415565582981800E-002	4.855199877347331E+000
-8.4738481E-001	3.427934664359787E-002	4.866199877069448E+000
-8.4842539E-001	3.374346743512441E-002	4.877399876786512E+000
-8.4938717E-001	3.306696654472047E-002	4.888399876508629E+000
-8.5037029E-001	3.354716657719119E-002	4.899599876225693E+000
-8.5138130E-001	3.333946420985745E-002	4.910599875947810E+000
-8.5240179E-001	3.389399252191649E-002	4.921799875664874E+000
-8.5341215E-001	3.443440090981320E-002	4.932999875381938E+000
-8.5441184E-001	3.418650005012780E-002	4.943999875104055E+000
-8.5542083E-001	3.369677021109979E-002	4.955199874821119E+000
-8.5639703E-001	3.182895143574571E-002	4.966199874543236E+000
-8.5742819E-001	3.154043004731655E-002	4.977399874260300E+000
-8.5840404E-001	3.102640826371521E-002	4.988399873982416E+000
-8.5944027E-001	3.055168173596046E-002	4.999599873699481E+000
-8.6040276E-001	3.016524548147570E-002	5.010599873421597E+000
-8.6142135E-001	3.064653332025052E-002	5.021799873138662E+000
-8.6241812E-001	3.005100103910097E-002	5.032999872855726E+000
-8.6340547E-001	2.966903152002494E-002	5.043999872577842E+000
-8.6440772E-001	2.900766087084783E-002	5.055199872294907E+000
-8.6538506E-001	2.881388085341319E-002	5.066199872017023E+000
-8.6643308E-001	2.814608579734346E-002	5.077399871734087E+000
-8.6742538E-001	2.850909346336269E-002	5.088399871456204E+000
-8.6844033E-001	2.757789047987905E-002	5.099599871173268E+000
-8.6940020E-001	2.711438737809661E-002	5.110599870895385E+000
-8.7041271E-001	2.731029644608507E-002	5.121799870612449E+000
-8.7137663E-001	2.682922462321591E-002	5.132999870329513E+000
-8.7239105E-001	2.653882747836178E-002	5.143999870051630E+000
-8.7343246E-001	2.679724850517218E-002	5.155199869768694E+000
-8.7439364E-001	2.607767231558678E-002	5.166199869490811E+000
-8.7540746E-001	2.593167202721819E-002	5.177399869207875E+000
-8.7640131E-001	2.488331161497623E-002	5.188399868929992E+000
-8.7736356E-001	2.470421175850790E-002	5.199599868647056E+000
-8.7839758E-001	2.461542648001358E-002	5.210599868369172E+000
-8.7935668E-001	2.484885706449863E-002	5.221799868086237E+000
-8.8040620E-001	2.478070425917395E-002	5.232999867803301E+000
-8.8142031E-001	2.472302236827095E-002	5.243999867525417E+000
-8.8238418E-001	2.410318084497703E-002	5.255199867242482E+000
-8.8341641E-001	2.342265137529478E-002	5.266199866964598E+000
-8.8440174E-001	2.319681515102273E-002	5.277399866681662E+000
-8.8536352E-001	2.295534896285978E-002	5.288399866403779E+000
-8.8640964E-001	2.274015430477450E-002	5.299599866120843E+000
-8.8738877E-001	2.272891441913093E-002	5.310599865842960E+000
-8.8839728E-001	2.270139518630471E-002	5.321799865560024E+000
-8.8937730E-001	2.255522843945082E-002	5.332999865277088E+000
-8.9033335E-001	2.207246963371294E-002	5.343999864999205E+000
-8.9139998E-001	2.093915106350328E-002	5.355199864716269E+000
-8.9240152E-001	2.071504985360662E-002	5.366199864438386E+000
-8.9340752E-001	2.044225137797193E-002	5.377399864155450E+000
-8.9440542E-001	1.993730051384773E-002	5.388399863877567E+000
-8.9539433E-001	1.917003834241769E-002	5.399599863594631E+000
-8.9641792E-001	1.851581202383391E-002	5.410599863316747E+000
-8.9738894E-001	1.846615011745598E-002	5.421799863033812E+000
-8.9836103E-001	1.819076231302469E-002	5.432999862750876E+000
-8.9934564E-001	1.829875966039254E-002	5.443999862472992E+000
-9.0041548E-001	1.802259191055783E-002	5.455199862190057E+000
-9.0138912E-001	1.747962811961770E-002	5.466199861912173E+000
-9.0242124E-001	1.741021506051767E-002	5.477399861629237E+000
-9.0335137E-001	1.705622902693002E-002	5.488399861351354E+000
-9.0436828E-001	1.688373966142542E-002	5.499599861068418E+000
-9.0539300E-001	1.676066451327649E-002	5.510599860790535E+000
-9.0637481E-001	1.643719114363199E-002	5.521799860507599E+000
-9.0737897E-001	1.589900927996496E-002	5.532999860224663E+000
-9.0833694E-001	1.552779620455114E-002	5.543999859946780E+000
-9.0938538E-001	1.530018942517936E-002	5.555199859663844E+000
-9.1038620E-001	1.502708224084931E-002	5.566199859385961E+000
-9.1133577E-001	1.496765233954644E-002	5.577399859103025E+000
-9.1234744E-001	1.475488534037145E-002	5.588399858825142E+000
-9.1337734E-001	1.462472166706003E-002	5.599599858542206E+000
-9.1434532E-001	1.410944343981102E-002	5.610599858264322E+000
-9.1534400E-001	1.376210309434101E-002	5.621799857981387E+000
-9.1633809E-001	1.321516505602632E-002	5.632999857698451E+000
-9.1734093E-001	1.273161390490712E-002	5.643999857420567E+000
-9.1835499E-001	1.226671448137495E-002	5.655199857137632E+000
-9.1937524E-001	1.207347222167304E-002	5.666199856859748E+000
-9.2036104E-001	1.178777335982892E-002	5.677399856576812E+000
-9.2138708E-001	1.162325008277548E-002	5.688399856298929E+000
-9.2239541E-001	1.127951775211842E-002	5.699599856015993E+000
-9.2341411E-001	1.099856199725768E-002	5.710599855738110E+000
-9.2437416E-001	1.130583703299638E-002	5.721799855455174E+000
-9.2538536E-001	1.100934260495709E-002	5.732999855172238E+000
-9.2641109E-001	1.066107431266572E-002	5.743999854894355E+000
-9.2745912E-001	1.033915597290616E-002	5.755199854611419E+000
-9.2842710E-001	1.002180542083814E-002	5.766199854333536E+000
-9.2943060E-001	9.846135911211626E-003	5.777399854050600E+000
-9.3040347E-001	9.590531085559656E-003	5.788399853772717E+000
-9.3141592E-001	9.338055800326400E-003	5.799599853489781E+000
-9.3242824E-001	9.091636810771936E-003	5.810599853211897E+000
-9.3344301E-001	9.054196875222298E-003	5.821799852928962E+000
-9.3438983E-001	8.723112999432514E-003	5.832999852646026E+000
-9.3540144E-001	8.592509025038469E-003	5.843999852368142E+000
-9.3641394E-001	8.333153376006569E-003	5.855199852085207E+000
-9.3742460E-001	7.825088948593517E-003	5.866199851807323E+000
-9.3840724E-001	7.332139989521244E-003	5.877399851524387E+000
-9.3941134E-001	7.220949362817919E-003	5.888399851246504E+000
-9.4038993E-001	6.842871985718396E-003	5.899599850963568E+000
-9.4139874E-001	6.453300666180467E-003	5.910599850685685E+000
-9.4244695E-001	6.229562792286758E-003	5.921799850402749E+000
-9.4344246E-001	5.869336735777345E-003	5.932999850119813E+000
-9.4442326E-001	5.711960592452701E-003	5.943999849841930E+000
-9.4541204E-001	5.549669216998173E-003	5.955199849558994E+000
-9.4639456E-001	5.059720659919553E-003	5.966199849281111E+000
-9.4741994E-001	4.924167259450760E-003	5.977399848998175E+000
-9.4841844E-001	4.671586531840174E-003	5.988399848720292E+000
-9.4948030E-001	4.428533950485890E-003	5.999599848437356E+000
-9.5044702E-001	4.173724799038624E-003	6.010599848159472E+000
-9.5141619E-001	3.939984487587950E-003	6.021799847876537E+000
-9.5245469E-001	3.580143263789075E-003	6.032999847593601E+000
-9.5343417E-001	3.243103918248377E-003	6.043999847315717E+000
-9.5442235E-001	2.913946099724861E-003	6.055199847032782E+000
-9.5540941E-001	2.500162050819217E-003	6.066199846754898E+000
-9.5911217E-001	1.273113860285476E-003	6.107399845714099E+000
-9.6011275E-001	1.123872212174325E-003	6.118399845436215E+000
-9.6112168E-001	8.271092290488037E-004	6.129599845153280E+000
-9.6210289E-001	7.319755790149429E-004	6.140599844875396E+000
-9.6311927E-001	3.026391892035473E-004	6.151799844592460E+000
-9.6409613E-001	1.337284520896275E-004	6.162999844309525E+000
-9.6513653E-001	-1.117145088869616E-005	6.173999844031641E+000
-9.6611840E-001	-3.829294782008224E-004	6.185199843748705E+000
-9.6712351E-001	-6.201747861268817E-004	6.196199843470822E+000
-9.6812177E-001	-8.434947155001272E-004	6.207399843187886E+000
-9.6910757E-001	-1.201483533332064E-003	6.218399842910003E+000
-9.7011805E-001	-1.542243601397791E-003	6.229599842627067E+000
-9.7109318E-001	-1.676449372971546E-003	6.240599842349184E+000
-9.7209173E-001	-1.989484700770837E-003	6.251799842066248E+000
-9.7312939E-001	-2.328313801990584E-003	6.262999841783312E+000
-9.7407758E-001	-2.423997576734109E-003	6.273999841505429E+000
-9.7515726E-001	-2.773561226676970E-003	6.285199841222493E+000
-9.7608048E-001	-3.081840357372106E-003	6.296199840944610E+000
-9.7713864E-001	-3.269064221458381E-003	6.307399840661674E+000
-9.7810817E-001	-3.611727297211487E-003	6.318399840383790E+000
-9.7905910E-001	-3.920265594097139E-003	6.329599840100855E+000
-9.8008543E-001	-4.053537828222022E-003	6.340599839822971E+000
-9.8107350E-001	-4.381820492926604E-003	6.351799839540035E+000
-9.8212343E-001	-4.676650432083984E-003	6.362999839257100E+000
-9.8304760E-001	-4.814733343664526E-003	6.373999838979216E+000
-9.8413229E-001	-5.135399407081409E-003	6.385199838696280E+000
-9.8505610E-001	-5.417580348439484E-003	6.396199838418397E+000
-9.8612159E-001	-5.545131706967354E-003	6.407399838135461E+000
-9.8705763E-001	-5.852913032140324E-003	6.418399837857578E+000
-9.8805124E-001	-6.122603700641771E-003	6.429599837574642E+000
-9.8908669E-001	-6.214697433169908E-003	6.440599837296759E+000
-9.9009365E-001	-6.510823335629523E-003	6.451799837013823E+000
-9.9109304E-001	-6.760208588602795E-003	6.462999836730887E+000
-9.9208927E-001	-6.818141603507688E-003	6.473999836453004E+000
-9.9305701E-001	-7.098974009786596E-003	6.485199836170068E+000
-9.9406201E-001	-7.316852523799731E-003	6.496199835892185E+000
-9.9508309E-001	-7.382892243913391E-003	6.507399835609249E+000
-9.9604589E-001	-7.611462494969586E-003	6.518399835331365E+000
-9.9711227E-001	-7.813771216533486E-003	6.529599835048430E+000
-9.9808985E-001	-7.857549251493734E-003	6.540599834770546E+000
-9.9910885E-001	-8.060850055626317E-003	6.551799834487611E+000
-1.0001601E+000	-8.257847348868350E-003	6.562999834204675E+000
-1.0011442E+000	-8.251927475794202E-003	6.573999833926791E+000
-1.0021253E+000	-8.446390569879392E-003	6.585199833643856E+000
-1.0031251E+000	-8.622022601775803E-003	6.596199833365972E+000
-1.0041019E+000	-8.615364948636850E-003	6.607399833083036E+000
-1.0050877E+000	-8.800699375569820E-003	6.618399832805153E+000
-1.0061305E+000	-8.974832645617395E-003	6.629599832522217E+000
-1.0070826E+000	-8.961626930540617E-003	6.640599832244334E+000
-1.0080930E+000	-9.164077185123420E-003	6.651799831961398E+000
-1.0090586E+000	-9.360298215760843E-003	6.662999831678462E+000
-1.0101360E+000	-9.365074450470225E-003	6.673999831400579E+000
-1.0111165E+000	-9.583243780507428E-003	6.685199831117643E+000
-1.0120916E+000	-9.777142780221723E-003	6.696199830839760E+000
-1.0131217E+000	-9.813553469284655E-003	6.707399830556824E+000
-1.0140765E+000	-1.004804454903929E-002	6.718399830278941E+000
-1.0150484E+000	-1.024952378618765E-002	6.729599829996005E+000
-1.0161043E+000	-1.031253045672198E-002	6.740599829718121E+000
-1.0171145E+000	-1.058361478339061E-002	6.751799829435186E+000
-1.0193640E+000	-1.109805233645600E-002	6.777999828773318E+000
-1.0217925E+000	-1.124244207298031E-002	6.803999828116503E+000
-1.0228084E+000	-1.161200260248733E-002	6.815199827833567E+000
-1.0238147E+000	-1.177068868346393E-002	6.826199827555683E+000
-1.0248123E+000	-1.202808939327951E-002	6.837399827272748E+000
-1.0258015E+000	-1.243882457478315E-002	6.848399826994864E+000
-1.0268248E+000	-1.262443354382412E-002	6.859599826711928E+000
-1.0277704E+000	-1.288595157457163E-002	6.870599826434045E+000
-1.0288239E+000	-1.334524735590092E-002	6.881799826151109E+000
-1.0297747E+000	-1.360924241074826E-002	6.892999825868174E+000
-1.0307484E+000	-1.391992170116278E-002	6.903999825590290E+000
-1.0318019E+000	-1.436331932054596E-002	6.915199825307354E+000
-1.0327966E+000	-1.464071117530685E-002	6.926199825029471E+000
-1.0337911E+000	-1.496884822263383E-002	6.937399824746535E+000
-1.0347797E+000	-1.543755868013250E-002	6.948399824468652E+000
-1.0357864E+000	-1.575847903732206E-002	6.959599824185716E+000
-1.0367900E+000	-1.615216087986471E-002	6.970599823907833E+000
-1.0377972E+000	-1.666904794925348E-002	6.981799823624897E+000
-1.0388070E+000	-1.698591223917903E-002	6.992999823341961E+000
-1.0397749E+000	-1.741229327773905E-002	7.003999823064078E+000
-1.0407916E+000	-1.798100831540067E-002	7.015199822781142E+000
-1.0418003E+000	-1.838627043063745E-002	7.026199822503258E+000
-1.0427873E+000	-1.884113565407453E-002	7.037399822220323E+000
-1.0437342E+000	-1.942291246610695E-002	7.048399821942439E+000
-1.0447437E+000	-1.987127706233871E-002	7.059599821659504E+000
-1.0457466E+000	-2.043257641606032E-002	7.070599821381620E+000
-1.0467221E+000	-2.106174323766025E-002	7.081799821098684E+000
-1.0477577E+000	-2.176565748697606E-002	7.092999820815749E+000
-1.0487523E+000	-2.246616576740039E-002	7.103999820537865E+000
-1.0497955E+000	-2.354572837561131E-002	7.115199820254929E+000
-1.0507772E+000	-2.530988269427326E-002	7.126199819977046E+000
-1.0517594E+000	-2.653924437501698E-002	7.137399819694110E+000
-1.0527735E+000	-2.816031437250782E-002	7.148399819416227E+000
-1.0537642E+000	-2.985652601899347E-002	7.159599819133291E+000
-1.0547591E+000	-3.212624906620465E-002	7.170599818855408E+000
-1.0557796E+000	-3.476716852572270E-002	7.181799818572472E+000
-1.0567178E+000	-4.054065127042117E-002	7.192999818289536E+000
-1.0577350E+000	-4.379574293270688E-002	7.203999818011653E+000
-1.0587634E+000	-4.697955787181839E-002	7.215199817728717E+000
-1.0597719E+000	-5.028492684941721E-002	7.226199817450834E+000
-1.0607874E+000	-5.448142458510093E-002	7.237399817167898E+000
-1.0617223E+000	-5.938680411025382E-002	7.248399816890014E+000
-1.0627359E+000	-6.485618624603348E-002	7.259599816607079E+000
-1.0637583E+000	-7.360731716966240E-002	7.270599816329195E+000
-1.0647326E+000	-9.323603391181656E-002	7.281799816046259E+000
-1.0670571E+000	-1.238056859123752E-001	7.307999815384392E+000
-1.0693828E+000	-1.620690182503313E-001	7.333999814727576E+000
-1.0704616E+000	-1.870429384359154E-001	7.345199814444641E+000
-1.0714060E+000	-2.153417268884361E-001	7.356199814166757E+000
-1.0724115E+000	-2.555028556287282E-001	7.367399813883821E+000
-1.0733868E+000	-3.054136028792695E-001	7.378399813605938E+000
-1.0744414E+000	-3.494885240402066E-001	7.389599813323002E+000
-1.0754424E+000	-3.897659711353469E-001	7.400599813045119E+000
-1.0763906E+000	-4.392292342009014E-001	7.411799812762183E+000
-1.0774153E+000	-4.973888324480491E-001	7.422999812479247E+000
-1.0784384E+000	-5.549103599600459E-001	7.433999812201364E+000
-1.0794346E+000	-6.236903801932936E-001	7.445199811918428E+000
-1.0804398E+000	-6.913007709570209E-001	7.456199811640545E+000
-1.0814432E+000	-7.575561572890717E-001	7.467399811357609E+000
-1.0823746E+000	-8.366673136409375E-001	7.478399811079726E+000
-1.0834280E+000	-9.243151854258045E-001	7.489599810796790E+000
-1.0843835E+000	-1.005527099594474E+000	7.500599810518906E+000
-1.0867882E+000	-1.224858172141635E+000	7.526799809857039E+000
-1.0891260E+000	-1.448914420288050E+000	7.552999809195171E+000
-1.0901221E+000	-1.548154077455401E+000	7.563999808917288E+000
-1.0911150E+000	-1.658131539300083E+000	7.575199808634352E+000
-1.0921258E+000	-1.765549074653531E+000	7.586199808356469E+000
-1.0931203E+000	-1.879817401021718E+000	7.597399808073533E+000
-1.0941199E+000	-1.985302537791426E+000	7.608399807795649E+000
-1.0950958E+000	-2.096184297874569E+000	7.619599807512714E+000
-1.0961214E+000	-2.202916773334138E+000	7.630599807234830E+000
-1.0971280E+000	-2.311842206008720E+000	7.641799806951894E+000
-1.0981164E+000	-2.421070052310821E+000	7.652999806668959E+000
-1.0991300E+000	-2.524140429571268E+000	7.663999806391075E+000
-1.1000980E+000	-2.632962289564318E+000	7.675199806108139E+000
-1.1011591E+000	-2.743831710256629E+000	7.686199805830256E+000
-1.1021334E+000	-2.849391067735851E+000	7.697399805547320E+000
-1.1031357E+000	-2.950545728132134E+000	7.708399805269437E+000
-1.1041816E+000	-3.054379674680526E+000	7.719599804986501E+000
-1.1051459E+000	-3.155414110980922E+000	7.730599804708618E+000
-1.1061460E+000	-3.262016925401994E+000	7.741799804425682E+000
-1.1071553E+000	-3.364226993806660E+000	7.752999804142746E+000
-1.1081032E+000	-3.463589126281427E+000	7.763999803864863E+000
-1.1091338E+000	-3.581414177343248E+000	7.775199803581927E+000
-1.1101310E+000	-3.680721159763642E+000	7.786199803304044E+000
-1.1111099E+000	-3.782647951357056E+000	7.797399803021108E+000
-1.1121082E+000	-3.883394395895309E+000	7.808399802743224E+000
-1.1131152E+000	-3.983607375696302E+000	7.819599802460289E+000
-1.1140620E+000	-4.080905405059429E+000	7.830599802182405E+000
-1.1151042E+000	-4.180220732837910E+000	7.841799801899469E+000
-1.1161557E+000	-4.280337389633043E+000	7.852999801616534E+000
-1.1171436E+000	-4.377058495059591E+000	7.863999801338650E+000
-1.1181213E+000	-4.474457866027961E+000	7.875199801055714E+000
-1.1190712E+000	-4.569130596145982E+000	7.886199800777831E+000
-1.1201068E+000	-4.668058894798154E+000	7.897399800494895E+000
-1.1210668E+000	-4.763563952147962E+000	7.908399800217012E+000
-1.1220771E+000	-4.862360069900753E+000	7.919599799934076E+000
-1.1231027E+000	-4.955880967006095E+000	7.930599799656193E+000
-1.1241121E+000	-5.051761084571460E+000	7.941799799373257E+000
-1.1251264E+000	-5.148545708507289E+000	7.952999799090321E+000
-1.1261432E+000	-5.244699003696438E+000	7.963999798812438E+000
-1.1271576E+000	-5.340711164325448E+000	7.975199798529502E+000
-1.1281544E+000	-5.434218449443570E+000	7.986199798251619E+000
-1.1291702E+000	-5.528268731608982E+000	7.997399797968683E+000
-1.1301739E+000	-5.620574146583650E+000	8.008399797690799E+000
-1.1311839E+000	-5.714016771018507E+000	8.019599797407864E+000
-1.1321657E+000	-5.805378433242431E+000	8.030599797129980E+000
-1.1331407E+000	-5.897859649658201E+000	8.041799796847044E+000
-1.1341507E+000	-5.990917216315832E+000	8.052999796564109E+000
-1.1351680E+000	-6.083187272697671E+000	8.063999796286225E+000
-1.1361476E+000	-6.176456583812822E+000	8.075199796003290E+000
-1.1371695E+000	-6.268079173266869E+000	8.086199795725406E+000
-1.1382108E+000	-6.360646606460222E+000	8.097399795442470E+000
-1.1391585E+000	-6.449892585128524E+000	8.108399795164587E+000
-1.1401675E+000	-6.541442563682779E+000	8.119599794881651E+000
-1.1411765E+000	-6.631985999122278E+000	8.130599794603768E+000
-1.1421976E+000	-6.723066871017195E+000	8.141799794320832E+000
-1.1431723E+000	-6.814189590290169E+000	8.152999794037896E+000
-1.1441945E+000	-6.904561702609072E+000	8.163999793760013E+000
-1.1451832E+000	-6.994803175479177E+000	8.175199793477077E+000
-1.1461231E+000	-7.084296642318364E+000	8.186199793199194E+000
-1.1471816E+000	-7.176285036429761E+000	8.197399792916258E+000
-1.1481557E+000	-7.264597442150100E+000	8.208399792638374E+000
-1.1491747E+000	-7.358816963061685E+000	8.219599792355439E+000
-1.1501384E+000	-7.449078072085952E+000	8.230599792077555E+000
-1.1511595E+000	-7.538737051784963E+000	8.241799791794620E+000
-1.1522081E+000	-7.630607315897947E+000	8.252999791511684E+000
-1.1531702E+000	-7.719025437161349E+000	8.263999791233800E+000
-1.1541848E+000	-7.808494419232005E+000	8.275199790950865E+000
-1.1551580E+000	-7.896648084521303E+000	8.286199790672981E+000
-1.1561973E+000	-7.986687204539747E+000	8.297399790390045E+000
-1.1571808E+000	-8.074627861678575E+000	8.308399790112162E+000
-1.1581784E+000	-8.163622817397084E+000	8.319599789829226E+000
-1.1591580E+000	-8.251353280395239E+000	8.330599789551343E+000
-1.1601701E+000	-8.340371076613646E+000	8.341799789268407E+000
-1.1611640E+000	-8.428889040350867E+000	8.352999788985471E+000
-1.1621209E+000	-8.516217136085018E+000	8.363999788707588E+000
-1.1631653E+000	-8.604629874527433E+000	8.375199788424652E+000
-1.1641209E+000	-8.691447088271360E+000	8.386199788146769E+000
-1.1651611E+000	-8.780650477707383E+000	8.397399787863833E+000
-1.1661752E+000	-8.867251646667683E+000	8.408399787585950E+000
-1.1671973E+000	-8.956305828094429E+000	8.419599787303014E+000
-1.1681790E+000	-9.044656987397019E+000	8.430699787022604E+000
-1.1691329E+000	-9.131831290870906E+000	8.441799786742195E+000
-1.1701916E+000	-9.220419582426530E+000	8.452999786459259E+000
-1.1711699E+000	-9.306469802558389E+000	8.463999786181375E+000
-1.1721578E+000	-9.393518664687846E+000	8.475199785898440E+000
-1.1731616E+000	-9.482325818687656E+000	8.486199785620556E+000
-1.1741869E+000	-9.570551884025290E+000	8.497399785337620E+000
-1.1751435E+000	-9.656347618401043E+000	8.508399785059737E+000
-1.1762074E+000	-9.745804576277706E+000	8.519599784776801E+000
-1.1771470E+000	-9.832360413223469E+000	8.530599784498918E+000
-1.1781889E+000	-9.919227833747826E+000	8.541799784215982E+000
-1.1791849E+000	-1.000767550751567E+001	8.552999783933046E+000
-1.1801738E+000	-1.009365555256604E+001	8.563999783655163E+000
-1.1811669E+000	-1.018127814009782E+001	8.575199783372227E+000
-1.1821553E+000	-1.026804283142087E+001	8.586199783094344E+000
-1.1831641E+000	-1.035612602964042E+001	8.597399782811408E+000
-1.1841240E+000	-1.044171914771195E+001	8.608399782533525E+000
-1.1850786E+000	-1.052919454738495E+001	8.619599782250589E+000
-1.1861119E+000	-1.061744606718416E+001	8.630799781967653E+000
-1.1871029E+000	-1.070244718328118E+001	8.641799781689770E+000
-1.1881318E+000	-1.078988586679100E+001	8.652999781406834E+000
-1.1891083E+000	-1.087586605295535E+001	8.663999781128950E+000
-1.1914884E+000	-1.106462559785689E+001	8.690199780467083E+000
-1.1937966E+000	-1.124267658650874E+001	8.716199779810268E+000
-1.1948249E+000	-1.132954112023116E+001	8.727399779527332E+000
-1.1958197E+000	-1.141555958941581E+001	8.738399779249448E+000
-1.1968299E+000	-1.150014124363655E+001	8.749599778966513E+000
-1.1978073E+000	-1.158756184607742E+001	8.760799778683577E+000
-1.1988187E+000	-1.167455279320475E+001	8.771799778405693E+000
-1.1998022E+000	-1.176044119387862E+001	8.782999778122758E+000
-1.2007914E+000	-1.184495905563232E+001	8.793999777844874E+000
-1.2013667E+000	-1.189284960428873E+001	8.799599777703406E+000
-1.2007970E+000	-1.186264915972947E+001	8.805599777551834E+000
-1.1998103E+000	-1.181510484024881E+001	8.816799777268898E+000
-1.1988461E+000	-1.176331892937417E+001	8.827799776991014E+000
-1.1978241E+000	-1.170842946276065E+001	8.838999776708079E+000
-1.1967574E+000	-1.165634439215061E+001	8.850199776425143E+000
-1.1958507E+000	-1.160279719993466E+001	8.861199776147259E+000
-1.1948056E+000	-1.154961481288073E+001	8.872399775864324E+000
-1.1938200E+000	-1.148943045109508E+001	8.883399775586440E+000
-1.1927881E+000	-1.143343136027454E+001	8.894599775303504E+000
-1.1918077E+000	-1.137329161331058E+001	8.905599775025621E+000
-1.1908774E+000	-1.132184199020263E+001	8.916799774742685E+000
-1.1898472E+000	-1.126233594417570E+001	8.927799774464802E+000
-1.1888847E+000	-1.120552810639143E+001	8.938999774181866E+000
-1.1878318E+000	-1.114511846482750E+001	8.950199773898930E+000
-1.1868395E+000	-1.108653619229791E+001	8.961199773621047E+000
-1.1858432E+000	-1.102542685955759E+001	8.972399773338111E+000
-1.1848876E+000	-1.096592676803468E+001	8.983399773060228E+000
-1.1838458E+000	-1.090350664392113E+001	8.994599772777292E+000
-1.1828960E+000	-1.084280001834031E+001	9.005599772499409E+000
-1.1818436E+000	-1.078310647904874E+001	9.016799772216473E+000
-1.1808902E+000	-1.072311979638675E+001	9.027899771936063E+000
-1.1798631E+000	-1.065977023154497E+001	9.038999771655654E+000
-1.1788316E+000	-1.059844200804827E+001	9.050199771372718E+000
-1.1778704E+000	-1.053474351659416E+001	9.061199771094834E+000
-1.1768401E+000	-1.047475940003991E+001	9.072399770811899E+000
-1.1758240E+000	-1.041112138971685E+001	9.083399770534015E+000
-1.1748506E+000	-1.034642789810893E+001	9.094599770251079E+000
-1.1738532E+000	-1.028295878574249E+001	9.105599769973196E+000
-1.1728579E+000	-1.022107598304747E+001	9.116799769690260E+000
-1.1718678E+000	-1.015847189143300E+001	9.127799769412377E+000
-1.1708223E+000	-1.009572147145866E+001	9.138999769129441E+000
-1.1698511E+000	-1.003004828423258E+001	9.150199768846505E+000
-1.1688290E+000	-9.967374208122436E+000	9.161199768568622E+000
-1.1678666E+000	-9.902098851203903E+000	9.172399768285686E+000
-1.1668634E+000	-9.839177086204298E+000	9.183399768007803E+000
-1.1658478E+000	-9.768746294975287E+000	9.194599767724867E+000
-1.1648370E+000	-9.705156342834204E+000	9.205599767446984E+000
-1.1638708E+000	-9.640968556702092E+000	9.216799767164048E+000
-1.1628646E+000	-9.576018087118825E+000	9.227999766881112E+000
-1.1618484E+000	-9.510068199783547E+000	9.238999766603229E+000
-1.1608388E+000	-9.444210186004611E+000	9.250199766320293E+000
-1.1598587E+000	-9.381230956763034E+000	9.261199766042409E+000
-1.1588370E+000	-9.310285665839899E+000	9.272399765759474E+000
-1.1578977E+000	-9.249790064841505E+000	9.283399765481590E+000
-1.1568935E+000	-9.180866468399742E+000	9.294599765198655E+000
-1.1558549E+000	-9.116631374061086E+000	9.305599764920771E+000
-1.1548752E+000	-9.048872108459456E+000	9.316799764637835E+000
-1.1538671E+000	-8.983803017288437E+000	9.327999764354900E+000
-1.1528888E+000	-8.915955722182972E+000	9.338999764077016E+000
-1.1518584E+000	-8.849748003929847E+000	9.350199763794080E+000
-1.1508452E+000	-8.782943015396569E+000	9.361199763516197E+000
-1.1498380E+000	-8.715448460876928E+000	9.372399763233261E+000
-1.1487896E+000	-8.646217188239049E+000	9.383399762955378E+000
-1.1478397E+000	-8.580874354392236E+000	9.394599762672442E+000
-1.1468569E+000	-8.513322167694554E+000	9.405599762394559E+000
-1.1458436E+000	-8.442682084441159E+000	9.416799762111623E+000
-1.1447879E+000	-8.378097266554818E+000	9.427999761828687E+000
-1.1438762E+000	-8.310350742936151E+000	9.438999761550804E+000
-1.1428276E+000	-8.244585663825291E+000	9.450199761267868E+000
-1.1418527E+000	-8.178044330924717E+000	9.461199760989985E+000
-1.1408165E+000	-8.106994408965107E+000	9.472399760707049E+000
-1.1397920E+000	-8.040882308632135E+000	9.483399760429165E+000
-1.1388406E+000	-7.971157707571990E+000	9.494599760146230E+000
-1.1378617E+000	-7.904318012595155E+000	9.505599759868346E+000
-1.1368425E+000	-7.833267419636215E+000	9.516799759585410E+000
-1.1358428E+000	-7.765626448318365E+000	9.527999759302475E+000
-1.1348928E+000	-7.698137869834895E+000	9.538999759024591E+000
-1.1338358E+000	-7.629949133396124E+000	9.550199758741655E+000
-1.1328400E+000	-7.561938919424989E+000	9.561199758463772E+000
-1.1318338E+000	-7.492872959971422E+000	9.572399758180836E+000
-1.1308358E+000	-7.425902550891038E+000	9.583399757902953E+000
-1.1298401E+000	-7.357924223616706E+000	9.594599757620017E+000
-1.1288503E+000	-7.287328481078134E+000	9.605599757342134E+000
-1.1278535E+000	-7.218495098948438E+000	9.616799757059198E+000
-1.1268432E+000	-7.151022063568227E+000	9.627999756776262E+000
-1.1258202E+000	-7.078083054870348E+000	9.638999756498379E+000
-1.1248080E+000	-7.009818224459906E+000	9.650199756215443E+000
-1.1238363E+000	-6.939385135844333E+000	9.661199755937560E+000
-1.1228353E+000	-6.868302639350290E+000	9.672399755654624E+000
-1.1218226E+000	-6.804639697521935E+000	9.683399755376740E+000
-1.1208330E+000	-6.732861045524471E+000	9.694599755093805E+000
-1.1198317E+000	-6.663839912563553E+000	9.705599754815921E+000
-1.1188519E+000	-6.593905546814185E+000	9.716799754532985E+000
-1.1178507E+000	-6.526022268161185E+000	9.727999754250050E+000
-1.1168339E+000	-6.458308231681566E+000	9.738999753972166E+000
-1.1157970E+000	-6.386532701179370E+000	9.750199753689230E+000
-1.1148149E+000	-6.320964839458465E+000	9.761199753411347E+000
-1.1137987E+000	-6.250028947368264E+000	9.772399753128411E+000
-1.1128290E+000	-6.181640700176345E+000	9.783399752850528E+000
-1.1117897E+000	-6.112094367668025E+000	9.794599752567592E+000
-1.1108382E+000	-6.042837583869687E+000	9.805599752289709E+000
-1.1098181E+000	-5.975380748137823E+000	9.816799752006773E+000
-1.1088138E+000	-5.901986907348018E+000	9.827999751723837E+000
-1.1078137E+000	-5.836154949516013E+000	9.838999751445954E+000
-1.1068124E+000	-5.766840863078819E+000	9.850199751163018E+000
-1.1058486E+000	-5.701037487983704E+000	9.861199750885135E+000
-1.1048160E+000	-5.627347984313946E+000	9.872399750602199E+000
-1.1038288E+000	-5.557140321433499E+000	9.883399750324315E+000
-1.1028343E+000	-5.487839183658338E+000	9.894599750041380E+000
-1.1018339E+000	-5.417701201289887E+000	9.905599749763496E+000
-1.1008263E+000	-5.350374823883158E+000	9.916799749480560E+000
-1.0998275E+000	-5.278634469360114E+000	9.927999749197625E+000
-1.0988240E+000	-5.211110757812847E+000	9.938999748919741E+000
-1.0978149E+000	-5.140104953423148E+000	9.950199748636805E+000
-1.0968282E+000	-5.072393423244342E+000	9.961199748358922E+000
-1.0957859E+000	-5.001072930023064E+000	9.972399748075986E+000
-1.0947974E+000	-4.932398320361965E+000	9.983399747798103E+000
-1.0938293E+000	-4.865160792842502E+000	9.994599747515167E+000
-1.0928100E+000	-4.794386860206719E+000	1.000559974723728E+001
-1.0918069E+000	-4.727127180099444E+000	1.001679974695435E+001
-1.0908148E+000	-4.658735429272056E+000	1.002799974667141E+001
-1.0898318E+000	-4.589081104621286E+000	1.003899974639353E+001
-1.0888176E+000	-4.520692261233904E+000	1.005019974611059E+001
-1.0878187E+000	-4.451000120490768E+000	1.006119974583271E+001
-1.0868222E+000	-4.380188578441718E+000	1.007239974554977E+001
-1.0858183E+000	-4.311996767073850E+000	1.008339974527189E+001
-1.0848193E+000	-4.245175773948432E+000	1.009459974498895E+001
-1.0838159E+000	-4.174994124248613E+000	1.010559974471107E+001
-1.0815072E+000	-4.040679338667502E+000	1.013179974404920E+001
-1.0791191E+000	-3.892549684829987E+000	1.015799974338734E+001
-1.0781367E+000	-3.825225886367264E+000	1.016899974310945E+001
-1.0771325E+000	-3.757021256946018E+000	1.018019974282652E+001
-1.0761193E+000	-3.688324528373769E+000	1.019119974254863E+001
-1.0751595E+000	-3.620097695924343E+000	1.020239974226570E+001
-1.0741359E+000	-3.552177523076537E+000	1.021339974198781E+001
-1.0730922E+000	-3.482701820693890E+000	1.022459974170488E+001
-1.0721016E+000	-3.415891642495986E+000	1.023559974142700E+001
-1.0710906E+000	-3.347142292596416E+000	1.024679974114406E+001
-1.0701225E+000	-3.278371284492309E+000	1.025799974086112E+001
-1.0691187E+000	-3.211631958074847E+000	1.026899974058324E+001
-1.0681115E+000	-3.143943887092163E+000	1.028019974030030E+001
-1.0671370E+000	-3.077212540395546E+000	1.029119974002242E+001
-1.0660932E+000	-3.008853824548424E+000	1.030239973973949E+001
-1.0651560E+000	-2.942816517837320E+000	1.031339973946160E+001
-1.0641186E+000	-2.874364449977861E+000	1.032459973917867E+001
-1.0631332E+000	-2.807367049306617E+000	1.033559973890078E+001
-1.0621173E+000	-2.740467709712675E+000	1.034679973861785E+001
-1.0611334E+000	-2.673067049272358E+000	1.035799973833491E+001
-1.0601413E+000	-2.606328064203257E+000	1.036899973805703E+001
-1.0591382E+000	-2.539534346424032E+000	1.038019973777409E+001
-1.0581349E+000	-2.473367278017093E+000	1.039119973749621E+001
-1.0571325E+000	-2.406878068521614E+000	1.040239973721327E+001
-1.0561328E+000	-2.341491625085467E+000	1.041339973693539E+001
-1.0551580E+000	-2.275226903669534E+000	1.042459973665245E+001
-1.0541525E+000	-2.210117546804238E+000	1.043559973637457E+001
-1.0531781E+000	-2.144025012105701E+000	1.044679973609163E+001
-1.0521538E+000	-2.077276507057242E+000	1.045799973580870E+001
-1.0511624E+000	-2.013285105153912E+000	1.046899973553082E+001
-1.0501450E+000	-1.947272258009757E+000	1.048019973524788E+001
-1.0491184E+000	-1.882030429001894E+000	1.049119973497000E+001
-1.0481577E+000	-1.816967753805219E+000	1.050239973468706E+001
-1.0471129E+000	-1.752840665709222E+000	1.051339973440918E+001
-1.0461071E+000	-1.688012765124437E+000	1.052459973412624E+001
-1.0451565E+000	-1.625178136546161E+000	1.053559973384836E+001
-1.0441122E+000	-1.560935537852348E+000	1.054679973356542E+001
-1.0431528E+000	-1.496775410771367E+000	1.055799973328249E+001
-1.0421542E+000	-1.435742621067906E+000	1.056899973300460E+001
-1.0411643E+000	-1.372288778629155E+000	1.058019973272167E+001
-1.0401467E+000	-1.310440769754348E+000	1.059119973244378E+001
-1.0391577E+000	-1.248730415981258E+000	1.060239973216085E+001
-1.0381247E+000	-1.188080313168464E+000	1.061339973188296E+001
-1.0371333E+000	-1.125924139376730E+000	1.062459973160003E+001
-1.0361480E+000	-1.066466113924976E+000	1.063559973132215E+001
-1.0351380E+000	-1.006476427614686E+000	1.064679973103921E+001
-1.0341551E+000	-9.459032055921828E-001	1.065799973075627E+001
-1.0331485E+000	-8.885445878095908E-001	1.066899973047839E+001
-1.0321811E+000	-8.304943504929541E-001	1.068019973019545E+001
-1.0311553E+000	-7.733255092892786E-001	1.069119972991757E+001
-1.0301251E+000	-7.172831937856969E-001	1.070239972963464E+001
-1.0291607E+000	-6.632973323296749E-001	1.071339972935675E+001
-1.0281069E+000	-6.076517215371089E-001	1.072459972907382E+001
-1.0271699E+000	-5.557783056329946E-001	1.073559972879593E+001
-1.0261626E+000	-5.033624620363089E-001	1.074679972851300E+001
-1.0251782E+000	-4.524707812769337E-001	1.075799972823006E+001
-1.0241739E+000	-4.045453034946689E-001	1.076899972795218E+001
-1.0231656E+000	-3.572150261793272E-001	1.078019972766924E+001
-1.0221835E+000	-3.122906701266766E-001	1.079119972739136E+001
-1.0211302E+000	-2.692367705609646E-001	1.080239972710842E+001
-1.0201757E+000	-2.302192061487585E-001	1.081339972683054E+001
-1.0191556E+000	-1.917068692296731E-001	1.082459972654760E+001
-1.0181861E+000	-1.576149651804002E-001	1.083559972626972E+001
-1.0158373E+000	-9.350601538491857E-002	1.086179972560785E+001
-1.0134580E+000	-3.991513722517984E-002	1.088799972494598E+001
-1.0124683E+000	-2.234540297969932E-002	1.089899972466810E+001
-1.0114602E+000	-5.766874063100835E-003	1.091019972438517E+001
-1.0105077E+000	9.444497588228865E-003	1.092119972410728E+001
-1.0094767E+000	2.472634079545985E-002	1.093239972382435E+001
-1.0084434E+000	4.109558393072804E-002	1.094339972354646E+001
-1.0074493E+000	5.920949726190905E-002	1.095459972326353E+001
-1.0064845E+000	7.868675260455393E-002	1.096559972298564E+001
-1.0054866E+000	1.021783748944292E-001	1.097679972270271E+001
-1.0044227E+000	1.280652395787190E-001	1.098799972241977E+001
-1.0034486E+000	1.558955292799513E-001	1.099899972214189E+001
-1.0024390E+000	1.887168982182628E-001	1.101019972185895E+001
-1.0014913E+000	2.229086358589121E-001	1.102119972158107E+001
-1.0004194E+000	2.605149793066097E-001	1.103239972129813E+001
-9.9946499E-001	3.014270372781905E-001	1.104339972102025E+001
-9.9843866E-001	3.452911116275943E-001	1.105459972073731E+001
-9.9746436E-001	3.915763872349638E-001	1.106559972045943E+001
-9.9642652E-001	4.415869867708535E-001	1.107679972017650E+001
-9.9541807E-001	4.939661383815115E-001	1.108799971989356E+001
-9.9443221E-001	5.471968284621838E-001	1.109899971961568E+001
-9.9343038E-001	6.044936677627266E-001	1.111019971933274E+001
-9.9244803E-001	6.627182853035638E-001	1.112119971905486E+001
-9.9146497E-001	7.227803576365135E-001	1.113239971877192E+001
-9.9044240E-001	7.839781930018219E-001	1.114339971849404E+001
-9.8948687E-001	8.486496578063818E-001	1.115459971821110E+001
-9.8841172E-001	9.120136468205600E-001	1.116559971793322E+001
-9.8611009E-001	1.072475464294200E+000	1.119179971727135E+001
-9.8375392E-001	1.233512301836173E+000	1.121799971660948E+001
-9.8280370E-001	1.301865015383811E+000	1.122899971633160E+001
-9.8178345E-001	1.372360199056565E+000	1.124019971604866E+001
-9.8081893E-001	1.440733176749198E+000	1.125119971577078E+001
-9.7978109E-001	1.511550290584566E+000	1.126239971548785E+001
-9.7880262E-001	1.581146420165897E+000	1.127339971520996E+001
-9.7776252E-001	1.651729854140434E+000	1.128459971492703E+001
-9.7676730E-001	1.722495422363283E+000	1.129559971464914E+001
-9.7580880E-001	1.794220438636838E+000	1.130679971436621E+001
-9.7480327E-001	1.865840729270133E+000	1.131799971408327E+001
-9.7377723E-001	1.936867240108556E+000	1.132899971380539E+001
-9.7276628E-001	2.009519161134968E+000	1.134019971352245E+001
-9.7178733E-001	2.080338266603654E+000	1.135119971324457E+001
-9.7078246E-001	2.153310282304899E+000	1.136239971296163E+001
-9.6976471E-001	2.224978020340220E+000	1.137339971268375E+001
-9.6878684E-001	2.296906432546685E+000	1.138459971240081E+001
-9.6778733E-001	2.368563184812674E+000	1.139559971212293E+001
-9.6676773E-001	2.442390258461245E+000	1.140679971183999E+001
-9.6579766E-001	2.514360212795449E+000	1.141799971155706E+001
-9.6483040E-001	2.585759220272319E+000	1.142899971127918E+001
-9.6377856E-001	2.659628061540431E+000	1.144019971099624E+001
-9.6278250E-001	2.730874040201311E+000	1.145119971071836E+001
-9.6177649E-001	2.804158216714865E+000	1.146239971043542E+001
-9.6081161E-001	2.876992872245609E+000	1.147339971015754E+001
-9.5980150E-001	2.949548520632099E+000	1.148459970987460E+001
-9.5880735E-001	3.021575299724937E+000	1.149559970959672E+001
-9.5777738E-001	3.095864258445808E+000	1.150679970931378E+001
-9.5679677E-001	3.168411498703071E+000	1.151799970903085E+001
-9.5576173E-001	3.240803328976035E+000	1.152899970875296E+001
-9.5477104E-001	3.314566962309186E+000	1.154019970847003E+001
-9.5378351E-001	3.386546684280049E+000	1.155119970819214E+001
-9.5283645E-001	3.459357265867295E+000	1.156239970790921E+001
-9.5179677E-001	3.531657846830782E+000	1.157339970763132E+001
-9.5079058E-001	3.605121448189024E+000	1.158459970734839E+001
-9.4977534E-001	3.677250240892164E+000	1.159559970707051E+001
-9.4882888E-001	3.750828628838065E+000	1.160679970678757E+001
-9.4779611E-001	3.824417032934747E+000	1.161799970650463E+001
-9.4678050E-001	3.897226735912284E+000	1.162899970622675E+001
-9.4575560E-001	3.971556477695710E+000	1.164019970594381E+001
-9.4472498E-001	4.044095852226022E+000	1.165119970566593E+001
-9.4374532E-001	4.117214702591314E+000	1.166239970538300E+001
-9.4282109E-001	4.189728313908013E+000	1.167339970510511E+001
-9.4173640E-001	4.262771518230451E+000	1.168459970482218E+001
-9.4078839E-001	4.334254823997618E+000	1.169559970454429E+001
-9.3979681E-001	4.407810602188114E+000	1.170679970426136E+001
-9.3880039E-001	4.480452038124209E+000	1.171799970397842E+001
-9.3779081E-001	4.552360403537762E+000	1.172899970370054E+001
-9.3678194E-001	4.626385780796419E+000	1.174019970341760E+001
-9.3578345E-001	4.697402503788481E+000	1.175119970313972E+001
-9.3473536E-001	4.771017028167861E+000	1.176239970285678E+001
-9.3378323E-001	4.843343119472280E+000	1.177339970257890E+001
-9.3278503E-001	4.915191098526137E+000	1.178459970229596E+001
-9.3176365E-001	4.987576948478830E+000	1.179559970201808E+001
-9.3074650E-001	5.060715809166439E+000	1.180679970173514E+001
-9.2978591E-001	5.132723662853266E+000	1.181799970145221E+001
-9.2877746E-001	5.205562428012485E+000	1.182899970117433E+001
-9.2779678E-001	5.278493936210868E+000	1.184019970089139E+001
-9.2679936E-001	5.349028741493839E+000	1.185119970061351E+001
-9.2574060E-001	5.422774887382992E+000	1.186239970033057E+001
-9.2478693E-001	5.494270414337521E+000	1.187339970005269E+001
-9.2376268E-001	5.566171819344163E+000	1.188459969976975E+001
-9.2277998E-001	5.638033759593974E+000	1.189559969949187E+001
-9.2182070E-001	5.710678132995977E+000	1.190679969920893E+001
-9.2071998E-001	5.786913466751592E+000	1.191799969892600E+001
-9.1972047E-001	5.858458852618938E+000	1.192899969864811E+001
-9.1870970E-001	5.931561772525328E+000	1.194019969836518E+001
-9.1771132E-001	6.002360942810796E+000	1.195119969808729E+001
-9.1673392E-001	6.074590856209397E+000	1.196239969780436E+001
-9.1571772E-001	6.146664935126907E+000	1.197339969752647E+001
-9.1471153E-001	6.217751343250313E+000	1.198459969724354E+001
-9.1373652E-001	6.287969949990554E+000	1.199559969696566E+001
-9.1273743E-001	6.360973980873837E+000	1.200679969668272E+001
-9.1173077E-001	6.432245546132350E+000	1.201799969639978E+001
-9.1073889E-001	6.503105469718577E+000	1.202899969612190E+001
-9.0972161E-001	6.576439214348795E+000	1.204019969583896E+001
-9.0874827E-001	6.646006991714238E+000	1.205119969556108E+001
-9.0775669E-001	6.717072086632257E+000	1.206239969527815E+001
-9.0677899E-001	6.788374863937513E+000	1.207339969500026E+001
-9.0575629E-001	6.859270991161491E+000	1.208459969471733E+001
-9.0472281E-001	6.929183365181117E+000	1.209559969443944E+001
-9.0376031E-001	7.000603132247946E+000	1.210679969415651E+001
-9.0274554E-001	7.071862677410257E+000	1.211799969387357E+001
-9.0178615E-001	7.140958920940761E+000	1.212899969359569E+001
-9.0076619E-001	7.212471884414562E+000	1.214019969331275E+001
-8.9978951E-001	7.282003417164110E+000	1.215119969303487E+001
-8.9874130E-001	7.353044012859476E+000	1.216239969275193E+001
-8.9776713E-001	7.422668762058052E+000	1.217339969247405E+001
-8.9674252E-001	7.492747482955423E+000	1.218459969219111E+001
-8.9574301E-001	7.562627094238991E+000	1.219559969191323E+001
-8.9475179E-001	7.633915553912516E+000	1.220679969163029E+001
-8.9374691E-001	7.704323103278895E+000	1.221799969134736E+001
-8.9276671E-001	7.772923040390022E+000	1.222899969106948E+001
-8.9178705E-001	7.843138509392730E+000	1.224019969078654E+001
-8.9076847E-001	7.911338276863123E+000	1.225119969050866E+001
-8.8975644E-001	7.981101191490922E+000	1.226239969022572E+001
-8.8874739E-001	8.049039828926370E+000	1.227339968994784E+001
-8.8773966E-001	8.117574641853579E+000	1.228459968966490E+001
-8.8675928E-001	8.185948302894857E+000	1.229559968938702E+001
-8.8573194E-001	8.255256373733289E+000	1.230679968910408E+001
-8.8473535E-001	8.323136540055316E+000	1.231799968882115E+001
-8.8376832E-001	8.391386025100960E+000	1.232899968854326E+001
-8.8279504E-001	8.459566874504148E+000	1.234019968826033E+001
-8.8178158E-001	8.525615659058133E+000	1.235119968798244E+001
-8.8073522E-001	8.594572803825173E+000	1.236239968769951E+001
-8.7975901E-001	8.660982399582906E+000	1.237339968742162E+001
-8.7878537E-001	8.727501030564355E+000	1.238459968713869E+001
-8.7774986E-001	8.794386646598582E+000	1.239559968686081E+001
-8.7679774E-001	8.861550931632536E+000	1.240679968657787E+001
-8.7575150E-001	8.926835727691667E+000	1.241799968629493E+001
-8.7474585E-001	8.992198746055365E+000	1.242899968601705E+001
-8.7373453E-001	9.058744605332663E+000	1.244019968573411E+001
-8.7274444E-001	9.123434422761193E+000	1.245119968545623E+001
-8.7174922E-001	9.188996227234647E+000	1.246239968517330E+001
-8.7077618E-001	9.254534076005285E+000	1.247339968489541E+001
-8.6978221E-001	9.319123868644255E+000	1.248459968461248E+001
-8.6877030E-001	9.382179589867604E+000	1.249559968433459E+001
-8.6773694E-001	9.447315151840449E+000	1.250679968405166E+001
-8.6677051E-001	9.509572679549478E+000	1.251799968376872E+001
-8.6578107E-001	9.571858738511850E+000	1.252899968349084E+001
-8.6474597E-001	9.636286018341806E+000	1.254019968320790E+001
-8.6376446E-001	9.696244584023987E+000	1.255119968293002E+001
-8.6275023E-001	9.757855274528254E+000	1.256239968264708E+001
-8.6178374E-001	9.819466376304632E+000	1.257339968236920E+001
-8.6076653E-001	9.879331646561667E+000	1.258459968208626E+001
-8.5977197E-001	9.939249954521692E+000	1.259559968180838E+001
-8.5874885E-001	9.999265766441837E+000	1.260679968152544E+001
-8.5772365E-001	1.005809801861646E+001	1.261799968124251E+001
-8.5677481E-001	1.011607768118381E+001	1.262899968096463E+001
-8.5576051E-001	1.017400848194958E+001	1.264019968068169E+001
-8.5476053E-001	1.023046384587886E+001	1.265119968040381E+001
-8.5373843E-001	1.028798860102896E+001	1.266239968012087E+001
-8.5276788E-001	1.034362377136944E+001	1.267339967984299E+001
-8.5176736E-001	1.039917727217082E+001	1.268459967956005E+001
-8.5078520E-001	1.045265415027743E+001	1.269559967928217E+001
-8.4982175E-001	1.050660449340941E+001	1.270679967899923E+001
-8.4879738E-001	1.055998960211875E+001	1.271799967871630E+001
-8.4778500E-001	1.061132885172962E+001	1.272899967843841E+001
-8.4675860E-001	1.066356159940366E+001	1.274019967815548E+001
-8.4579825E-001	1.071424791395667E+001	1.275119967787759E+001
-8.4480822E-001	1.076486764460807E+001	1.276239967759466E+001
-8.4379935E-001	1.081456821665174E+001	1.277339967731677E+001
-8.4276724E-001	1.086233421102171E+001	1.278459967703384E+001
-8.4178376E-001	1.090929043099289E+001	1.279559967675596E+001
-8.4079051E-001	1.095544446721671E+001	1.280679967647302E+001
-8.3837771E-001	1.107907805621622E+001	1.283299967581115E+001
-8.3607483E-001	1.120008010417227E+001	1.285899967515434E+001
-8.3511645E-001	1.123999750077726E+001	1.287019967487140E+001
-8.3409077E-001	1.127464017421008E+001	1.288119967459352E+001
-8.3307290E-001	1.131450769737366E+001	1.289239967431058E+001
-8.3203512E-001	1.134752836927773E+001	1.290339967403270E+001
-8.3108836E-001	1.137876541197298E+001	1.291459967374976E+001
-8.3010805E-001	1.140582782581447E+001	1.292559967347188E+001
-8.2908994E-001	1.143421490728858E+001	1.293679967318894E+001
-8.2803035E-001	1.146066312119365E+001	1.294799967290601E+001
-8.2706636E-001	1.148159991741179E+001	1.295899967262812E+001
-8.2606965E-001	1.150325604245069E+001	1.297019967234519E+001
-8.2509285E-001	1.152184944599867E+001	1.298119967206731E+001
-8.2405537E-001	1.153476602330808E+001	1.299239967178437E+001
-8.2306015E-001	1.154820531845094E+001	1.300339967150649E+001
-8.2209176E-001	1.155585502430796E+001	1.301459967122355E+001
-8.2110935E-001	1.156139540642502E+001	1.302559967094567E+001
-8.2003880E-001	1.156201866462831E+001	1.303679967066273E+001
-8.1905276E-001	1.156310646057129E+001	1.304799967037980E+001
-8.1804544E-001	1.156053949862718E+001	1.305899967010191E+001
-8.1704766E-001	1.155396397396925E+001	1.307019966981898E+001
-8.1605273E-001	1.154100488886240E+001	1.308119966954109E+001
-8.1504160E-001	1.152302239164715E+001	1.309239966925816E+001
-8.1404424E-001	1.149984704434874E+001	1.310339966898027E+001
-8.1303614E-001	1.146265377745036E+001	1.311459966869734E+001
-8.1206673E-001	1.142679585203530E+001	1.312559966841945E+001
-8.1104338E-001	1.138481693968178E+001	1.313679966813652E+001
-8.1001049E-001	1.133407479256394E+001	1.314799966785358E+001
-8.0904192E-001	1.128291786193849E+001	1.315899966757570E+001
-8.0802882E-001	1.122392286583784E+001	1.317019966729276E+001
-8.0707055E-001	1.115434172183276E+001	1.318119966701488E+001
-8.0604845E-001	1.108074192777277E+001	1.319239966673194E+001
-8.0503935E-001	1.099639899060133E+001	1.320339966645406E+001
-8.0406845E-001	1.089505900219083E+001	1.321459966617113E+001
-8.0306131E-001	1.078870513918355E+001	1.322569966589072E+001
-8.0204779E-001	1.066684467121956E+001	1.323679966561031E+001
-8.0108309E-001	1.053689196586608E+001	1.324799966532737E+001
-8.0003250E-001	1.039506141915920E+001	1.325899966504949E+001
-7.9909974E-001	1.022266493350269E+001	1.327019966476655E+001
-7.9805064E-001	1.004841788768771E+001	1.328119966448867E+001
-7.9705447E-001	9.855034080147803E+000	1.329239966420573E+001
-7.9607117E-001	9.655474309623258E+000	1.330339966392785E+001
-7.9504925E-001	9.430910246819266E+000	1.331459966364491E+001
-7.9404444E-001	9.190001466423311E+000	1.332579966336198E+001
-7.9300445E-001	8.925974602401283E+000	1.333679966308409E+001
-7.9202759E-001	8.639671488106288E+000	1.334799966280116E+001
-7.9103285E-001	8.332965518981240E+000	1.335899966252327E+001
-7.9005289E-001	8.027576558887993E+000	1.337019966224034E+001
-7.8904361E-001	7.706252135261909E+000	1.338119966196246E+001
-7.8802252E-001	7.374303612038517E+000	1.339239966167952E+001
-7.8702796E-001	7.068443658202888E+000	1.340339966140164E+001
-7.8606886E-001	6.757092313766506E+000	1.341459966111870E+001
-7.8504378E-001	6.476691118404261E+000	1.342579966083576E+001
-7.8404874E-001	6.204369979053755E+000	1.343679966055788E+001
-7.8303796E-001	5.930087574943921E+000	1.344799966027495E+001
-7.8203321E-001	5.690027734115738E+000	1.345899965999706E+001
-7.8101647E-001	5.467200393974785E+000	1.347019965971413E+001
-7.7997971E-001	5.266202794238936E+000	1.348119965943624E+001
-7.7904451E-001	5.093282074779282E+000	1.349239965915331E+001
-7.7804828E-001	4.943419059738524E+000	1.350339965887542E+001
-7.7705061E-001	4.783456660434609E+000	1.351459965859249E+001
-7.7607876E-001	4.649045426994586E+000	1.352579965830955E+001
-7.7507657E-001	4.513890084922323E+000	1.353679965803167E+001
-7.7269161E-001	4.203490712046627E+000	1.356299965736980E+001
-7.7036542E-001	3.901297245249140E+000	1.358899965671299E+001
-7.6939160E-001	3.803982629068187E+000	1.360019965643005E+001
-7.6839685E-001	3.691378111913815E+000	1.361119965615217E+001
-7.6739448E-001	3.596470512449741E+000	1.362239965586923E+001
-7.6638067E-001	3.522001676857471E+000	1.363339965559135E+001
-7.6540190E-001	3.433578116111448E+000	1.364459965530841E+001
-7.6437241E-001	3.353139045648277E+000	1.365579965502548E+001
-7.6338243E-001	3.264342115633188E+000	1.366679965474759E+001
-7.6233482E-001	3.186496796309953E+000	1.367799965446466E+001
-7.6138860E-001	3.105132870823155E+000	1.368899965418677E+001
-7.6037413E-001	3.021877731643624E+000	1.370019965390384E+001
-7.5936007E-001	2.939362977743160E+000	1.371119965362595E+001
-7.5837910E-001	2.884423447139561E+000	1.372239965334302E+001
-7.5737023E-001	2.829435149580252E+000	1.373339965306513E+001
-7.5640243E-001	2.774900843463833E+000	1.374459965278220E+001
-7.5534332E-001	2.708117320686583E+000	1.375579965249926E+001
-7.5439948E-001	2.647578272335238E+000	1.376679965222138E+001
-7.5337690E-001	2.617256852388389E+000	1.377799965193844E+001
-7.5237989E-001	2.564504616335050E+000	1.378899965166056E+001
-7.5136906E-001	2.520033299848436E+000	1.380019965137762E+001
-7.5040203E-001	2.477001212276523E+000	1.381119965109974E+001
-7.4937034E-001	2.396740220226349E+000	1.382239965081681E+001
-7.4833953E-001	2.347976610027260E+000	1.383339965053892E+001
-7.4738485E-001	2.300405031517154E+000	1.384459965025599E+001
-7.4635792E-001	2.254961790628741E+000	1.385579964997305E+001
-7.4539423E-001	2.214520907960834E+000	1.386679964969517E+001
-7.4440527E-001	2.187637641020125E+000	1.387799964941223E+001
-7.4340767E-001	2.152872165590530E+000	1.388899964913435E+001
-7.4238938E-001	2.123125708661981E+000	1.390019964885141E+001
-7.4138242E-001	2.102210351377728E+000	1.391119964857353E+001
-7.4037313E-001	2.064928805269311E+000	1.392239964829059E+001
-7.3937732E-001	2.025822242647415E+000	1.393339964801271E+001
-7.3840320E-001	1.992924165092411E+000	1.394459964772977E+001
-7.3737097E-001	1.950262278784066E+000	1.395579964744684E+001
-7.3636490E-001	1.910084940157830E+000	1.396679964716895E+001
-7.3536885E-001	1.889238445721560E+000	1.397799964688602E+001
-7.3436493E-001	1.855751256942755E+000	1.398899964660814E+001
-7.3337781E-001	1.821947748865931E+000	1.400019964632520E+001
-7.3237634E-001	1.785359888561082E+000	1.401119964604732E+001
-7.3139882E-001	1.748514582999050E+000	1.402239964576438E+001
-7.3033744E-001	1.731725674867631E+000	1.403339964548650E+001
-7.2941184E-001	1.713365837410095E+000	1.404459964520356E+001
-7.2834086E-001	1.691552777681503E+000	1.405579964492063E+001
-7.2737396E-001	1.668556622061878E+000	1.406679964464274E+001
-7.2637403E-001	1.624838764779270E+000	1.407799964435981E+001
-7.2537857E-001	1.595271627791227E+000	1.408899964408192E+001
-7.2433513E-001	1.575750052575025E+000	1.410019964379899E+001
-7.2335815E-001	1.562999649886038E+000	1.411119964352110E+001
-7.2235113E-001	1.544659808799626E+000	1.412239964323817E+001
-7.2136062E-001	1.526652443092320E+000	1.413339964296028E+001
-7.2035629E-001	1.498184408545498E+000	1.414459964267735E+001
-7.1927333E-001	1.483722310941671E+000	1.415579964239441E+001
-7.1839589E-001	1.464590106084941E+000	1.416679964211653E+001
-7.1733582E-001	1.446830191090704E+000	1.417799964183359E+001
-7.1631104E-001	1.433127018213273E+000	1.418899964155571E+001
-7.1532130E-001	1.430589760504663E+000	1.420019964127277E+001
-7.1431202E-001	1.412376440875235E+000	1.421119964099489E+001
-7.1333408E-001	1.391291821245108E+000	1.422239964071196E+001
-7.1230865E-001	1.373838462624700E+000	1.423339964043407E+001
-7.1131384E-001	1.367357986643915E+000	1.424459964015114E+001
-7.1034789E-001	1.337713832575834E+000	1.425579963986820E+001
-7.0935512E-001	1.324478050824261E+000	1.426679963959032E+001
-7.0833457E-001	1.297417553141713E+000	1.427799963930738E+001
-7.0736939E-001	1.280781910810621E+000	1.428899963902950E+001
-7.0634383E-001	1.274414055384700E+000	1.430019963874656E+001
-7.0536268E-001	1.257366645019507E+000	1.431119963846868E+001
-7.0431894E-001	1.237411533948038E+000	1.432239963818574E+001
-7.0331937E-001	1.222692177966238E+000	1.433339963790786E+001
-7.0236051E-001	1.212815834246580E+000	1.434459963762492E+001
-7.0129567E-001	1.197414767779412E+000	1.435579963734199E+001
-7.0038837E-001	1.167920366600159E+000	1.436679963706410E+001
-6.9935578E-001	1.158232485726476E+000	1.437799963678117E+001
-6.9836056E-001	1.151983941756189E+000	1.438899963650329E+001
-6.9737405E-001	1.153417206089946E+000	1.440019963622035E+001
-6.9634879E-001	1.120165953077378E+000	1.441119963594247E+001
-6.9536728E-001	1.108398086149246E+000	1.442239963565953E+001
-6.9437808E-001	1.089905618429186E+000	1.443339963538165E+001
-6.9339263E-001	1.087645974159244E+000	1.444459963509871E+001
-6.9234538E-001	1.090666192527863E+000	1.445579963481578E+001
-6.9136572E-001	1.091648618057373E+000	1.446679963453789E+001
-6.9034785E-001	1.067654733657840E+000	1.447799963425496E+001
-6.8932360E-001	1.066273202933377E+000	1.448899963397707E+001
-6.8834704E-001	1.063683598637581E+000	1.450019963369414E+001
-6.8734425E-001	1.046319812498989E+000	1.451119963341625E+001
-6.8636024E-001	1.034518862161793E+000	1.452239963313332E+001
-6.8537527E-001	1.030992141682658E+000	1.453339963285543E+001
-6.8432152E-001	1.033493146933619E+000	1.454459963257250E+001
-6.8335813E-001	1.045344924926765E+000	1.455579963228956E+001
-6.8231887E-001	1.031856997925795E+000	1.456679963201168E+001
-6.8131495E-001	1.014040830731392E+000	1.457799963172874E+001
-6.8030143E-001	9.992715803347583E-001	1.458899963145086E+001
-6.7930913E-001	9.906393241882347E-001	1.460019963116793E+001
-6.7832816E-001	9.796039916295554E-001	1.461119963089004E+001
-6.7732257E-001	9.672724413685501E-001	1.462239963060711E+001
-6.7633033E-001	9.688452813774333E-001	1.463339963032922E+001
-6.7535961E-001	9.769014458078882E-001	1.464459963004629E+001
-6.7431825E-001	9.591275435686142E-001	1.465579962976335E+001
-6.7333281E-001	9.543297135364313E-001	1.466679962948547E+001
-6.7231083E-001	9.599221000634159E-001	1.467799962920253E+001
-6.7133808E-001	9.429507429432107E-001	1.468899962892465E+001
-6.7036116E-001	9.347622798290107E-001	1.470019962864171E+001
-6.6936946E-001	9.051588419638605E-001	1.471119962836383E+001
-6.6842556E-001	8.794019360374712E-001	1.472239962808089E+001
-6.6735351E-001	8.605543375387836E-001	1.473339962780301E+001
-6.6634333E-001	8.503466040641072E-001	1.474459962752007E+001
-6.6537488E-001	8.473073455132543E-001	1.475579962723714E+001
-6.6438073E-001	8.393580512050534E-001	1.476679962695926E+001
-6.6342247E-001	8.355426628328857E-001	1.477799962667632E+001
-6.6233349E-001	8.371222319826472E-001	1.478899962639844E+001
-6.6132230E-001	8.362399492040300E-001	1.480019962611550E+001
-6.6035104E-001	8.135410314425826E-001	1.481119962583762E+001
-6.5937084E-001	8.128406177181748E-001	1.482239962555468E+001
-6.5834844E-001	8.078202418889848E-001	1.483339962527680E+001
-6.5737474E-001	7.917988550104162E-001	1.484459962499386E+001
-6.5633291E-001	7.964802642632272E-001	1.485579962471093E+001
-6.5535939E-001	7.960081374272683E-001	1.486679962443304E+001
-6.5436810E-001	7.782260009460149E-001	1.487799962415011E+001
-6.5336186E-001	7.824976179748795E-001	1.488899962387222E+001
-6.5234625E-001	7.696941471286141E-001	1.490019962358929E+001
-6.5132862E-001	7.611560150980963E-001	1.491119962331140E+001
-6.5030223E-001	7.598918746691234E-001	1.492239962302847E+001
-6.4936781E-001	7.520713225193341E-001	1.493339962275059E+001
-6.4835238E-001	7.347263251710690E-001	1.494459962246765E+001
-6.4735782E-001	7.253671815991432E-001	1.495579962218471E+001
-6.4635384E-001	7.154323284048587E-001	1.496679962190683E+001
-6.4533895E-001	7.097614206094303E-001	1.497799962162389E+001
-6.4436954E-001	7.160806042142231E-001	1.498899962134601E+001
-6.4334106E-001	7.203410814609388E-001	1.500019962106308E+001
-6.4235908E-001	7.176379434671265E-001	1.501119962078519E+001
-6.4132291E-001	7.142800696473602E-001	1.502239962050226E+001
-6.4035016E-001	7.060837225895389E-001	1.503339962022437E+001
-6.3935822E-001	7.162812286615399E-001	1.504459961994144E+001
-6.3832319E-001	7.083141325693587E-001	1.505579961965850E+001
-6.3729942E-001	6.997082338109601E-001	1.506679961938062E+001
-6.3633883E-001	7.016273693833530E-001	1.507799961909768E+001
-6.3532919E-001	6.857964460644865E-001	1.508899961881980E+001
-6.3434106E-001	6.826910561695705E-001	1.510019961853686E+001
-6.3334519E-001	6.735895213484770E-001	1.511119961825898E+001
-6.3235068E-001	6.703693269100027E-001	1.512239961797604E+001
-6.3139224E-001	6.713816617522408E-001	1.513339961769816E+001
-6.3035560E-001	6.761429396457990E-001	1.514459961741522E+001
-6.2939060E-001	6.682854950614283E-001	1.515579961713229E+001
-6.2837374E-001	6.622740609850747E-001	1.516679961685441E+001
-6.2737006E-001	6.532405389565987E-001	1.517799961657147E+001
-6.2638617E-001	6.572368016839061E-001	1.518899961629359E+001
-6.2541717E-001	6.583378702215867E-001	1.520019961601065E+001
-6.2439793E-001	6.667110337596406E-001	1.521119961573277E+001
-6.2336278E-001	6.713250768184675E-001	1.522239961544983E+001
-6.2241405E-001	6.641308792401128E-001	1.523339961517195E+001
-6.2130833E-001	6.616057375445976E-001	1.524459961488901E+001
-6.2037367E-001	6.553014951758094E-001	1.525579961460608E+001
-6.1936277E-001	6.531263631768534E-001	1.526679961432819E+001
-6.1836535E-001	6.487543084006759E-001	1.527799961404526E+001
-6.1740327E-001	6.515894612856208E-001	1.528899961376737E+001
-6.1638296E-001	6.507478186488154E-001	1.530019961348444E+001
-6.1534709E-001	6.583699779678138E-001	1.531119961320655E+001
-6.1439019E-001	6.569700393453264E-001	1.532239961292362E+001
-6.1339009E-001	6.601008892245606E-001	1.533339961264574E+001
-6.1231565E-001	6.488328391127283E-001	1.534459961236280E+001
-6.1133558E-001	6.483810115233091E-001	1.535579961207986E+001
-6.1035448E-001	6.287023453507574E-001	1.536679961180198E+001
-6.0937154E-001	6.340473409090190E-001	1.537799961151904E+001
-6.0834682E-001	6.361734460759934E-001	1.538899961124116E+001
-6.0735893E-001	6.282826058845971E-001	1.540019961095823E+001
-6.0636741E-001	6.170755677018325E-001	1.541119961068034E+001
-6.0535246E-001	6.088594789896177E-001	1.542239961039741E+001
-6.0436386E-001	6.043700997252017E-001	1.543339961011952E+001
-6.0340703E-001	5.973955760616807E-001	1.544459960983659E+001
-6.0232103E-001	5.949528191890567E-001	1.545579960955365E+001
-6.0138106E-001	5.881198129244174E-001	1.546679960927577E+001
-6.0040271E-001	6.062227871827801E-001	1.547799960899283E+001
-5.9938163E-001	6.081279030628517E-001	1.548899960871495E+001
-5.9838152E-001	6.093374094739552E-001	1.550019960843201E+001
-5.9736294E-001	6.073985804896802E-001	1.551119960815413E+001
-5.9635502E-001	5.944905387144539E-001	1.552239960787119E+001
-5.9540594E-001	6.045630657859151E-001	1.553339960759331E+001
-5.9440064E-001	5.920442153234049E-001	1.554459960731037E+001
-5.9337932E-001	5.700779049377891E-001	1.555579960702744E+001
-5.9241492E-001	5.780847862735428E-001	1.556679960674956E+001
-5.9136391E-001	5.873907844815416E-001	1.557799960646662E+001
-5.9038532E-001	5.852382409945136E-001	1.558899960618874E+001
-5.8939308E-001	5.750833070278176E-001	1.560019960590580E+001
-5.8838940E-001	5.732233681250367E-001	1.561119960562792E+001
-5.8733374E-001	5.699913666024798E-001	1.562239960534498E+001
-5.8635408E-001	5.571599828172502E-001	1.563339960506710E+001
-5.8535564E-001	5.632197457924502E-001	1.564459960478416E+001
-5.8435971E-001	5.549435778427885E-001	1.565579960450123E+001
-5.8335298E-001	5.578362785186624E-001	1.566679960422334E+001
-5.8231777E-001	5.539000831823806E-001	1.567799960394041E+001
-5.8136177E-001	5.496328953094789E-001	1.568899960366252E+001
-5.8033949E-001	5.532050289679322E-001	1.570019960337959E+001
-5.7936102E-001	5.536609818134464E-001	1.571119960310170E+001
-5.7840222E-001	5.545439012255535E-001	1.572239960281877E+001
-5.7735914E-001	5.425639923196304E-001	1.573339960254089E+001
-5.7634789E-001	5.386258553434171E-001	1.574459960225795E+001
-5.7535523E-001	5.469277973379949E-001	1.575579960197501E+001
-5.7433319E-001	5.543919201288389E-001	1.576679960169713E+001
-5.7333869E-001	5.520452049002049E-001	1.577799960141419E+001
-5.7236809E-001	5.383286066818993E-001	1.578899960113631E+001
-5.7138616E-001	5.372380656190225E-001	1.580019960085338E+001
-5.7035112E-001	5.438558003678962E-001	1.581119960057549E+001
-5.6942612E-001	5.540326757822216E-001	1.582239960029256E+001
-5.6837767E-001	5.535897758789359E-001	1.583339960001467E+001
-5.6735623E-001	5.581170492339886E-001	1.584459959973174E+001
-5.6632727E-001	5.694801580533380E-001	1.585579959944880E+001
-5.6539118E-001	5.671034479327510E-001	1.586679959917092E+001
-5.6432486E-001	5.653487548418328E-001	1.587799959888798E+001
-5.6339967E-001	5.425026049185551E-001	1.588899959861010E+001
-5.6238604E-001	5.314539103489395E-001	1.590019959832716E+001
-5.6139040E-001	5.367496738210340E-001	1.591119959804928E+001
-5.6040442E-001	5.345730135031075E-001	1.592239959776634E+001
-5.5937546E-001	5.397136105690166E-001	1.593339959748846E+001
-5.5840164E-001	5.505097922496525E-001	1.594459959720552E+001
-5.5734146E-001	5.478435350023254E-001	1.595579959692259E+001
-5.5639732E-001	5.393132727313805E-001	1.596679959664471E+001
-5.5535525E-001	5.541379252076162E-001	1.597799959636177E+001
-5.5439198E-001	5.620160296931864E-001	1.598899959608389E+001
-5.5336744E-001	5.623002453055257E-001	1.600019959580095E+001
-5.5237347E-001	5.723728378023960E-001	1.601119959552307E+001
-5.5141765E-001	5.650966073665771E-001	1.602239959524013E+001
-5.5039144E-001	5.491101858206093E-001	1.603339959496225E+001
-5.4941118E-001	5.474848230462568E-001	1.604459959467931E+001
-5.4841375E-001	5.610520109347998E-001	1.605579959439638E+001
-5.4740548E-001	5.653719240427044E-001	1.606679959411849E+001
-5.4640132E-001	5.655242212209860E-001	1.607799959383556E+001
-5.4540312E-001	5.504198437556624E-001	1.608899959355767E+001
-5.4440475E-001	5.579316245485124E-001	1.610019959327474E+001
-5.4342091E-001	5.667744077462711E-001	1.611119959299685E+001
-5.4237247E-001	5.656854424066866E-001	1.612239959271392E+001
-5.4143351E-001	5.649684724397979E-001	1.613339959243604E+001
-5.4040539E-001	5.732195463962855E-001	1.614459959215310E+001
-5.3944361E-001	5.650457375217233E-001	1.615579959187016E+001
-5.3840017E-001	5.760873778630060E-001	1.616679959159228E+001
-5.3738117E-001	5.593770179338784E-001	1.617799959130934E+001
-5.3638381E-001	5.522146879602254E-001	1.618899959103146E+001
-5.3539598E-001	5.365598739776773E-001	1.620019959074853E+001
-5.3441507E-001	5.407987310271727E-001	1.621119959047064E+001
-5.3336322E-001	5.481350554805262E-001	1.622239959018771E+001
-5.3235620E-001	5.429894146136949E-001	1.623339958990982E+001
-5.3134966E-001	5.467033176030984E-001	1.624459958962689E+001
-5.3038377E-001	5.329896092414872E-001	1.625579958934395E+001
-5.2936327E-001	5.324551582895261E-001	1.626679958906607E+001
-5.2838147E-001	5.292499288078432E-001	1.627799958878313E+001
-5.2737802E-001	5.247935819998375E-001	1.628899958850525E+001
-5.2639312E-001	5.250018297415240E-001	1.630019958822231E+001
-5.2536762E-001	5.298177585192053E-001	1.631119958794443E+001
-5.2443534E-001	5.177103659324338E-001	1.632239958766149E+001
-5.2338094E-001	5.148631289787606E-001	1.633339958738361E+001
-5.2239078E-001	5.171453480701924E-001	1.634459958710067E+001
-5.2140194E-001	5.006566483993069E-001	1.635579958681774E+001
-5.2040374E-001	4.984507176280033E-001	1.636679958653986E+001
-5.1939619E-001	4.909919899096717E-001	1.637799958625692E+001
-5.1837611E-001	4.843659802852223E-001	1.638899958597904E+001
-5.1741970E-001	4.904654632508757E-001	1.640019958569610E+001
-5.1640797E-001	4.936124965548513E-001	1.641119958541822E+001
-5.1537675E-001	4.841726668179041E-001	1.642239958513528E+001
-5.1437742E-001	4.923191158194093E-001	1.643339958485740E+001
-5.1339847E-001	4.970479049067968E-001	1.644459958457446E+001
-5.1239556E-001	4.821880202880138E-001	1.645579958429153E+001
-5.1136810E-001	4.930084081180406E-001	1.646679958401364E+001
-5.1035506E-001	4.960661269817508E-001	1.647799958373071E+001
-5.0930685E-001	4.906524032820041E-001	1.648899958345282E+001
-5.0830042E-001	4.877320817206086E-001	1.650019958316989E+001
-5.0736457E-001	4.874831051100070E-001	1.651119958289200E+001
-5.0636256E-001	4.973948088102045E-001	1.652239958260907E+001
-5.0537008E-001	5.035645453725026E-001	1.653339958233119E+001
-5.0431818E-001	4.934958086488770E-001	1.654459958204825E+001
-5.0331122E-001	4.913884401321411E-001	1.655579958176531E+001
-5.0234175E-001	4.950159245915722E-001	1.656679958148743E+001
-5.0132114E-001	4.920342080108817E-001	1.657799958120449E+001
-5.0035524E-001	5.006419641245170E-001	1.658899958092661E+001
-4.9933508E-001	4.921375429304327E-001	1.660019958064368E+001
-4.9837676E-001	4.993543237354618E-001	1.661119958036579E+001
-4.9732402E-001	5.022316968161622E-001	1.662239958008286E+001
-4.9639550E-001	5.117005274072319E-001	1.663339957980497E+001
-4.9536639E-001	5.131369602493958E-001	1.664459957952204E+001
-4.9436498E-001	5.038557671010497E-001	1.665579957923910E+001
-4.9334884E-001	5.137776592280723E-001	1.666679957896122E+001
-4.9233916E-001	5.225030914321538E-001	1.667799957867828E+001
-4.9143481E-001	5.128508597426134E-001	1.668899957840040E+001
-4.9036381E-001	5.030313551239676E-001	1.670019957811746E+001
-4.8933184E-001	4.972250245325291E-001	1.671119957783958E+001
-4.8839781E-001	4.805429454054666E-001	1.672239957755664E+001
-4.8734963E-001	4.843764746794470E-001	1.673339957727876E+001
-4.8636338E-001	5.017694240901625E-001	1.674459957699582E+001
-4.8531961E-001	4.935845173290008E-001	1.675579957671289E+001
-4.8434183E-001	4.827511172601966E-001	1.676679957643501E+001
-4.8336068E-001	4.703645291505385E-001	1.677799957615207E+001
-4.8238084E-001	4.741239277319997E-001	1.678899957587419E+001
-4.8133770E-001	4.904975772975018E-001	1.680019957559125E+001
-4.8036093E-001	4.889068741817013E-001	1.681119957531337E+001
-4.7937307E-001	4.716433083498872E-001	1.682239957503043E+001
-4.7835335E-001	4.650319012720132E-001	1.683339957475255E+001
-4.7736403E-001	4.741617555636921E-001	1.684459957446961E+001
-4.7635350E-001	4.755461020255458E-001	1.685579957418668E+001
-4.7538528E-001	4.813289142632877E-001	1.686679957390879E+001
-4.7437528E-001	4.702993573248415E-001	1.687799957362586E+001
-4.7338048E-001	4.672781994519770E-001	1.688899957334797E+001
-4.7236183E-001	4.570803459174932E-001	1.690019957306504E+001
-4.7135779E-001	4.614416311681269E-001	1.691119957278715E+001
-4.7040084E-001	4.479256978118791E-001	1.692239957250422E+001
-4.6935892E-001	4.500285936100421E-001	1.693339957222634E+001
-4.6834505E-001	4.519299172237510E-001	1.694459957194340E+001
-4.6734768E-001	4.703581610415140E-001	1.695579957166046E+001
-4.6636701E-001	4.756494267471130E-001	1.696679957138258E+001
-4.6534577E-001	4.764659124612812E-001	1.697799957109964E+001
-4.6437085E-001	4.873034918308263E-001	1.698899957082176E+001
-4.6336251E-001	5.072342749033146E-001	1.700019957053883E+001
-4.6240214E-001	5.000473979394915E-001	1.701119957026094E+001
-4.6136826E-001	5.012053953390572E-001	1.702239956997801E+001
-4.6035519E-001	5.017214380204726E-001	1.703339956970012E+001
-4.5937985E-001	5.045015659742056E-001	1.704459956941719E+001
-4.5834696E-001	5.170327810850015E-001	1.705579956913425E+001
-4.5735675E-001	5.287551947217457E-001	1.706679956885637E+001
-4.5634583E-001	5.087986058183014E-001	1.707799956857343E+001
-4.5535389E-001	5.006607144977904E-001	1.708899956829555E+001
-4.5437464E-001	4.996786011662326E-001	1.710019956801261E+001
-4.5339265E-001	4.952779037831352E-001	1.711119956773473E+001
-4.5238036E-001	5.019067693222343E-001	1.712239956745179E+001
-4.5136407E-001	4.920491690747451E-001	1.713339956717391E+001
-4.5035222E-001	4.930131840426473E-001	1.714459956689097E+001
-4.4933811E-001	4.916040226491170E-001	1.715579956660804E+001
-4.4834903E-001	5.041734382230789E-001	1.716679956633016E+001
-4.4730335E-001	5.200628621969373E-001	1.717799956604722E+001
-4.4634908E-001	5.064597517065721E-001	1.718899956576934E+001
-4.4535485E-001	5.122858387604357E-001	1.720019956548640E+001
-4.4437158E-001	5.272996570449342E-001	1.721119956520852E+001
-4.4335350E-001	5.126750291790820E-001	1.722239956492558E+001
-4.4233364E-001	5.025655504781756E-001	1.723339956464770E+001
-4.4131398E-001	5.079700310528290E-001	1.724459956436476E+001
-4.4032821E-001	5.000744260661296E-001	1.725579956408183E+001
-4.3934244E-001	5.073277853522464E-001	1.726679956380394E+001
-4.3836045E-001	5.039378433022643E-001	1.727799956352101E+001
-4.3733269E-001	5.256914568319919E-001	1.728899956324312E+001
-4.3633029E-001	5.261559643130749E-001	1.730019956296019E+001
-4.3537283E-001	5.074829347524812E-001	1.731119956268230E+001
-4.3433830E-001	5.224331611581174E-001	1.732239956239937E+001
-4.3337208E-001	5.382748731784535E-001	1.733339956212149E+001
-4.3236521E-001	5.372768643498429E-001	1.734459956183855E+001
-4.3134570E-001	5.440691579785204E-001	1.735579956155561E+001
-4.3029767E-001	5.535271568503255E-001	1.736679956127773E+001
-4.2935982E-001	5.452745328750499E-001	1.737799956099479E+001
-4.2835870E-001	5.476145805511625E-001	1.738899956071691E+001
-4.2732829E-001	5.491483769007037E-001	1.740019956043398E+001
-4.2634192E-001	5.493476939387638E-001	1.741119956015609E+001
-4.2532372E-001	5.315486760344361E-001	1.742239955987316E+001
-4.2433411E-001	5.240005956869584E-001	1.743359955959022E+001
-4.2334563E-001	5.280420288816101E-001	1.744459955931234E+001
-4.2232439E-001	5.201486580353230E-001	1.745579955902940E+001
-4.2134431E-001	5.224493709206595E-001	1.746679955875152E+001
-4.2037076E-001	5.183437087107450E-001	1.747799955846858E+001
-4.1939473E-001	5.155091871414346E-001	1.748899955819070E+001
-4.1835165E-001	5.186463448219003E-001	1.750019955790776E+001
-4.1741058E-001	5.129389115981757E-001	1.751119955762988E+001
-4.1636601E-001	5.150920009426789E-001	1.752239955734694E+001
-4.1537350E-001	5.180311787314740E-001	1.753359955706401E+001
-4.1440302E-001	5.219269965868476E-001	1.754459955678612E+001
-4.1336855E-001	5.120629610028122E-001	1.755579955650319E+001
-4.1239464E-001	5.297881850413990E-001	1.756679955622531E+001
-4.1140714E-001	5.297414738312369E-001	1.757799955594237E+001
-4.1040301E-001	5.267419904656707E-001	1.758899955566449E+001
-4.0933761E-001	5.235195730719746E-001	1.760019955538155E+001
-4.0836293E-001	5.171873559150864E-001	1.761119955510367E+001
-4.0736437E-001	5.174769675731667E-001	1.762239955482073E+001
-4.0634328E-001	5.109933616314100E-001	1.763359955453780E+001
-4.0535957E-001	5.146354527864601E-001	1.764459955425991E+001
-4.0435028E-001	4.998684161808353E-001	1.765579955397698E+001
-4.0335289E-001	4.985750240553184E-001	1.766679955369909E+001
-4.0236178E-001	4.840931484708566E-001	1.767799955341616E+001
-4.0169474E-001	4.753504481084434E-001	1.768569955322164E+001
-4.0148017E-001	4.730060994625092E-001	1.768839955315343E+001