Ewe/V	<I>/mA	time/s	
-4.0837276E-001	1.869685411453247E+000	0.000000000000000E+000
-4.0905857E-001	1.807915578851303E+000	6.999999823165126E-003
-4.1004661E-001	1.679096173605924E+000	1.939999950991478E-002
-4.1107339E-001	1.591096224285483E+000	3.199999919161201E-002
-4.1207528E-001	1.511821474918783E+000	4.439999887836166E-002
-4.1308188E-001	1.447268847409374E+000	5.699999856005888E-002
-4.1406789E-001	1.396749807261145E+000	6.939999824680854E-002
-4.1508874E-001	1.333063138876160E+000	8.199999792850576E-002
-4.1602686E-001	1.257329346484598E+000	9.439999761525542E-002
-4.1706452E-001	1.188728481348209E+000	1.069999972969526E-001
-4.1805565E-001	1.127205353939816E+000	1.193999969837023E-001
-4.1905633E-001	1.081926192168051E+000	1.319999966653995E-001
-4.2011634E-001	1.049678336823412E+000	1.443999963521492E-001
-4.2105937E-001	1.018194072552781E+000	1.569999960338464E-001
-4.2210507E-001	9.858692552051700E-001	1.693999957205961E-001
-4.2309776E-001	9.419630962268766E-001	1.819999954022933E-001
-4.2408389E-001	9.012346596767475E-001	1.944999950865167E-001
-4.2509434E-001	8.632206269151852E-001	2.069999947707402E-001
-4.2608225E-001	8.515908226795643E-001	2.194999944549636E-001
-4.2709044E-001	8.293745097471437E-001	2.319999941391870E-001
-4.2809942E-001	8.050350548225679E-001	2.444999938234105E-001
-4.2908442E-001	7.762918684249094E-001	2.569999935076339E-001
-4.3006837E-001	7.581835210851633E-001	2.694999931918574E-001
-4.3111363E-001	7.612451011719727E-001	2.819999928760808E-001
-4.3209088E-001	7.389804370897402E-001	2.944999925603042E-001
-4.3306249E-001	7.026589885021401E-001	3.069999922445277E-001
-4.3404058E-001	7.064816362322568E-001	3.194999919287511E-001
-4.3509507E-001	6.844288892129313E-001	3.319999916129746E-001
-4.3607667E-001	6.662623991737728E-001	3.444999912971980E-001
-4.3712783E-001	6.498478642703687E-001	3.569999909814214E-001
-4.3808329E-001	6.446362085509714E-001	3.694999906656449E-001
-4.3908724E-001	6.218886807217210E-001	3.819999903498683E-001
-4.4007415E-001	6.140512376996492E-001	3.944999900340918E-001
-4.4110397E-001	5.992582398688504E-001	4.069999897183152E-001
-4.4208291E-001	5.855823303491166E-001	4.194999894025386E-001
-4.4310036E-001	5.802221865520754E-001	4.319999890867621E-001
-4.4412577E-001	5.654597700878465E-001	4.444999887709855E-001
-4.4507176E-001	5.596491108687291E-001	4.569999884552090E-001
-4.4606203E-001	5.497258288284756E-001	4.694999881394324E-001
-4.4706187E-001	5.531733679790274E-001	4.819999878236558E-001
-4.4809276E-001	5.277378734075935E-001	4.944999875078793E-001
-4.4904840E-001	5.090117968447005E-001	5.069999871921027E-001
-4.5007357E-001	5.079965476758161E-001	5.194999868763261E-001
-4.5109341E-001	5.182451145429674E-001	5.319999865605496E-001
-4.5206213E-001	5.128483703790221E-001	5.444999862447730E-001
-4.5310280E-001	5.032951722193202E-001	5.569999859289965E-001
-4.5409852E-001	5.000824499357908E-001	5.694999856132199E-001
-4.5510039E-001	4.942928238638798E-001	5.819999852974433E-001
-4.5605579E-001	4.966291093093202E-001	5.944999849816668E-001
-4.5703083E-001	4.975861360435396E-001	6.069999846658902E-001
-4.5809406E-001	4.904458547713604E-001	6.194999843501137E-001
-4.5907259E-001	4.895921272719077E-001	6.319999840343371E-001
-4.6007383E-001	4.884312443478758E-001	6.444999837185605E-001
-4.6109012E-001	4.749735442816192E-001	6.569999834027840E-001
-4.6202216E-001	4.635669424018829E-001	6.694999830870074E-001
-4.6309254E-001	4.558878188420632E-001	6.819999827712309E-001
-4.6407968E-001	4.514194760575099E-001	6.944999824554543E-001
-4.6503985E-001	4.473339784779551E-001	7.069999821396777E-001
-4.6604952E-001	4.317145590637734E-001	7.194999818239012E-001
-4.6709600E-001	4.241424683991486E-001	7.319999815081246E-001
-4.6802613E-001	4.153595809792079E-001	7.444999811923481E-001
-4.6906224E-001	4.128413343375215E-001	7.569999808765715E-001
-4.7003493E-001	4.069897727319169E-001	7.694999805607949E-001
-4.7105628E-001	4.060233417729329E-001	7.819999802450184E-001
-4.7205630E-001	4.044976110763479E-001	7.944999799292418E-001
-4.7546795E-001	3.837332996315259E-001	8.369999788556015E-001
-4.7649774E-001	3.823957973846084E-001	8.494999785398250E-001
-4.7744748E-001	3.739509127751397E-001	8.619999782240484E-001
-4.7848949E-001	3.713282805102276E-001	8.744999779082718E-001
-4.7950411E-001	3.737807932165689E-001	8.869999775924953E-001
-4.8046902E-001	3.702672118421813E-001	8.994999772767187E-001
-4.8145175E-001	3.656708501290442E-001	9.119999769609421E-001
-4.8244795E-001	3.447053856475089E-001	9.244999766451656E-001
-4.8346320E-001	3.435232579178695E-001	9.369999763293890E-001
-4.8446095E-001	3.310237437056385E-001	9.494999760136125E-001
-4.8541000E-001	3.301076094655970E-001	9.619999756978359E-001
-4.8648483E-001	3.223770928735261E-001	9.744999753820593E-001
-4.8747683E-001	3.199641687706820E-001	9.869999750662828E-001
-4.8844942E-001	3.185178583653983E-001	9.994999747505062E-001
-4.8945522E-001	3.141503899934746E-001	1.011999974434730E+000
-4.9043673E-001	3.090187667226378E-001	1.024499974118953E+000
-4.9143952E-001	3.050443487507963E-001	1.036999973803177E+000
-4.9247503E-001	3.107662707572656E-001	1.049499973487400E+000
-4.9340934E-001	3.105274350077485E-001	1.061999973171623E+000
-4.9444178E-001	3.116962614194209E-001	1.074499972855847E+000
-4.9547139E-001	3.127554856251820E-001	1.086999972540070E+000
-4.9644655E-001	3.074325996952165E-001	1.099499972224294E+000
-4.9745670E-001	3.040935986362117E-001	1.111999971908517E+000
-4.9846241E-001	2.999037836463201E-001	1.124499971592741E+000
-4.9947986E-001	2.934086417856934E-001	1.136999971276964E+000
-5.0041407E-001	2.913680743829126E-001	1.149499970961188E+000
-5.0146306E-001	2.892887882439301E-001	1.161999970645411E+000
-5.0248247E-001	2.786113704753541E-001	1.174499970329634E+000
-5.0344580E-001	2.777160092747576E-001	1.186999970013858E+000
-5.0445575E-001	2.729190390867497E-001	1.199499969698081E+000
-5.0543052E-001	2.713824280307615E-001	1.211999969382305E+000
-5.0648052E-001	2.707306161871431E-001	1.224499969066528E+000
-5.0746387E-001	2.735488947835711E-001	1.236999968750752E+000
-5.0846660E-001	2.741124714923524E-001	1.249499968434975E+000
-5.0946677E-001	2.717683935174835E-001	1.261999968119198E+000
-5.1049340E-001	2.643523710434001E-001	1.274499967803422E+000
-5.1146662E-001	2.518076798975608E-001	1.286999967487645E+000
-5.1251346E-001	2.500970300398664E-001	1.299499967171869E+000
-5.1352346E-001	2.477281893079635E-001	1.311999966856092E+000
-5.1452941E-001	2.492893133816252E-001	1.324499966540316E+000
-5.1552939E-001	2.479817352113551E-001	1.336999966224539E+000
-5.1652414E-001	2.440390051492334E-001	1.349499965908763E+000
-5.1750791E-001	2.499183660866477E-001	1.361999965592986E+000
-5.1851135E-001	2.471020871253238E-001	1.374499965277209E+000
-5.1944417E-001	2.448592611278098E-001	1.386999964961433E+000
-5.2048194E-001	2.393874871620807E-001	1.399499964645656E+000
-5.2144635E-001	2.405327251402749E-001	1.411999964329880E+000
-5.2251089E-001	2.354351623836171E-001	1.424499964014103E+000
-5.2351779E-001	2.347509459096266E-001	1.436999963698327E+000
-5.2445632E-001	2.345692456035455E-001	1.449499963382550E+000
-5.2548254E-001	2.251214063019564E-001	1.461999963066773E+000
-5.2646369E-001	2.232380316535565E-001	1.474499962750997E+000
-5.2744603E-001	2.237005883791765E-001	1.486999962435220E+000
-5.2846384E-001	2.168021607907127E-001	1.499499962119444E+000
-5.2950978E-001	2.188117460394832E-001	1.511999961803667E+000
-5.3047252E-001	2.189723101406418E-001	1.524499961487891E+000
-5.3146672E-001	2.164671854296190E-001	1.536999961172114E+000
-5.3247815E-001	2.176218449549301E-001	1.549499960856338E+000
-5.3346205E-001	2.194973180857716E-001	1.561999960540561E+000
-5.3444040E-001	2.174806864074377E-001	1.574499960224784E+000
-5.3546482E-001	2.192125381025969E-001	1.586999959909008E+000
-5.3645504E-001	2.199314542942584E-001	1.599499959593231E+000
-5.3751272E-001	2.179172189152312E-001	1.611999959277455E+000
-5.3847402E-001	2.158448655751934E-001	1.624499958961678E+000
-5.3952318E-001	2.112700400660588E-001	1.636999958645902E+000
-5.4052907E-001	2.052410876321236E-001	1.649499958330125E+000
-5.4148388E-001	2.038177457288839E-001	1.661999958014349E+000
-5.4251695E-001	1.995425475169013E-001	1.674499957698572E+000
-5.4352671E-001	1.986825713254463E-001	1.686999957382795E+000
-5.4448551E-001	1.981390205787887E-001	1.699499957067019E+000
-5.4548764E-001	1.968712481009003E-001	1.711999956751242E+000
-5.4653031E-001	1.954165855606436E-001	1.724499956435466E+000
-5.4751694E-001	1.979229209093676E-001	1.736999956119689E+000
-5.4852867E-001	1.947929039257099E-001	1.749499955803913E+000
-5.4951066E-001	1.902776114383462E-001	1.761999955488136E+000
-5.5052769E-001	1.935619472332659E-001	1.774499955172359E+000
-5.5152011E-001	1.892994307293387E-001	1.786999954856583E+000
-5.5247110E-001	1.862820154600606E-001	1.799499954540806E+000
-5.5346090E-001	1.875931272315086E-001	1.811999954225030E+000
-5.5453199E-001	1.881709761620751E-001	1.824499953909253E+000
-5.5548817E-001	1.859364590304069E-001	1.836999953593477E+000
-5.5646658E-001	1.852007438469547E-001	1.849499953277700E+000
-5.5745953E-001	1.875160490516078E-001	1.861999952961924E+000
-5.5844778E-001	1.826531767752568E-001	1.874499952646147E+000
-5.5947691E-001	1.808080618273897E-001	1.886999952330370E+000
-5.6051582E-001	1.812348616056205E-001	1.899499952014594E+000
-5.6143892E-001	1.806336654346015E-001	1.911999951698817E+000
-5.6248975E-001	1.796410796804389E-001	1.924499951383041E+000
-5.6347495E-001	1.794012821011997E-001	1.936999951067264E+000
-5.6450111E-001	1.724335762327636E-001	1.949499950751488E+000
-5.6550878E-001	1.720861754292851E-001	1.961999950435711E+000
-5.6647718E-001	1.760618175510640E-001	1.974499950119935E+000
-5.6745976E-001	1.740990749330245E-001	1.986999949804158E+000
-5.6848538E-001	1.773892061925108E-001	1.999499949488381E+000
-5.6947744E-001	1.769464438693833E-001	2.011999949172605E+000
-5.7044178E-001	1.697829614913537E-001	2.024499948856828E+000
-5.7145840E-001	1.638346933399426E-001	2.036999948541052E+000
-5.7246441E-001	1.612750727837163E-001	2.049499948225275E+000
-5.7347286E-001	1.610753088122396E-001	2.061999947909499E+000
-5.7444441E-001	1.571602404937262E-001	2.074499947593722E+000
-5.7547593E-001	1.582979567347571E-001	2.086999947277945E+000
-5.7650751E-001	1.579814517839226E-001	2.099499946962169E+000
-5.7748324E-001	1.605049202577593E-001	2.111999946646392E+000
-5.7845330E-001	1.622070273934537E-001	2.124499946330616E+000
-5.7946140E-001	1.635204158450341E-001	2.136999946014839E+000
-5.8049512E-001	1.640916175701882E-001	2.149499945699063E+000
-5.8147454E-001	1.610190616116776E-001	2.161999945383286E+000
-5.8245736E-001	1.643234441725379E-001	2.174499945067510E+000
-5.8343488E-001	1.628884347155690E-001	2.186999944751733E+000
-5.8445877E-001	1.602352976408241E-001	2.199499944435956E+000
-5.8545965E-001	1.640976320514236E-001	2.211999944120180E+000
-5.8645046E-001	1.600590238309532E-001	2.224499943804403E+000
-5.8742666E-001	1.527909504068142E-001	2.236999943488627E+000
-5.8843654E-001	1.540364204090343E-001	2.249499943172850E+000
-5.8948463E-001	1.549289660483953E-001	2.261999942857074E+000
-5.9047228E-001	1.546262914372052E-001	2.274499942541297E+000
-5.9148449E-001	1.544143061466801E-001	2.286999942225521E+000
-5.9248555E-001	1.517020305434827E-001	2.299499941909744E+000
-5.9347618E-001	1.523849218993708E-001	2.311999941593967E+000
-5.9442139E-001	1.467221824354248E-001	2.324499941278191E+000
-5.9545928E-001	1.472755788563513E-001	2.336999940962414E+000
-5.9647524E-001	1.454882488391304E-001	2.349499940646638E+000
-5.9743404E-001	1.500359637880359E-001	2.361999940330861E+000
-5.9843475E-001	1.474697405965286E-001	2.374499940015085E+000
-5.9945023E-001	1.457256069670191E-001	2.386999939699308E+000
-6.0046065E-001	1.460280998191957E-001	2.399499939383531E+000
-6.0144651E-001	1.429682335243947E-001	2.411999939067755E+000
-6.0248095E-001	1.434385231355679E-001	2.424499938751978E+000
-6.0348654E-001	1.439765522123448E-001	2.436999938436202E+000
-6.0447943E-001	1.449329123290379E-001	2.449499938120425E+000
-6.0543889E-001	1.429235081138494E-001	2.461999937804649E+000
-6.0649318E-001	1.436830488467944E-001	2.474499937488872E+000
-6.0748452E-001	1.481417685745765E-001	2.486999937173096E+000
-6.0844070E-001	1.434470163270216E-001	2.499499936857319E+000
-6.0946220E-001	1.419742122158087E-001	2.511999936541542E+000
-6.1043841E-001	1.405131854675172E-001	2.524499936225766E+000
-6.1147207E-001	1.383312008124662E-001	2.536999935909989E+000
-6.1247069E-001	1.385151774122799E-001	2.549499935594213E+000
-6.1347055E-001	1.414008564849305E-001	2.561999935278436E+000
-6.1445719E-001	1.437578629988256E-001	2.574499934962660E+000
-6.1550790E-001	1.415125536600712E-001	2.586999934646883E+000
-6.1646438E-001	1.380919104296316E-001	2.599499934331106E+000
-6.1747837E-001	1.357381313150878E-001	2.611999934015330E+000
-6.1846697E-001	1.339210077993598E-001	2.624499933699553E+000
-6.1948407E-001	1.328216061921839E-001	2.636999933383777E+000
-6.2046951E-001	1.336292930904568E-001	2.649499933068000E+000
-6.2145656E-001	1.351280689233969E-001	2.661999932752224E+000
-6.2246698E-001	1.344585724478613E-001	2.674499932436447E+000
-6.2348998E-001	1.316471588790944E-001	2.686999932120671E+000
-6.2446105E-001	1.271930676490101E-001	2.699499931804894E+000
-6.2545896E-001	1.242700986206597E-001	2.711999931489117E+000
-6.2648386E-001	1.227965197084770E-001	2.724499931173341E+000
-6.2746936E-001	1.234183263614317E-001	2.736999930857564E+000
-6.2849081E-001	1.248296922193948E-001	2.749499930541788E+000
-6.2946159E-001	1.237859436265095E-001	2.761999930226011E+000
-6.3048190E-001	1.232774426080889E-001	2.774499929910235E+000
-6.3145709E-001	1.230688025396033E-001	2.786999929594458E+000
-6.3248849E-001	1.237577849444906E-001	2.799499929278682E+000
-6.3349819E-001	1.225403319223831E-001	2.811999928962905E+000
-6.3443798E-001	1.207781569979136E-001	2.824499928647128E+000
-6.3545537E-001	1.199699381215313E-001	2.836999928331352E+000
-6.3646322E-001	1.190829918357641E-001	2.849499928015575E+000
-6.3745558E-001	1.175996693276655E-001	2.861999927699799E+000
-6.3849545E-001	1.147149929331552E-001	2.874499927384022E+000
-6.3944280E-001	1.150790913116433E-001	2.886999927068246E+000
-6.4045906E-001	1.156636470852540E-001	2.899499926752469E+000
-6.4148045E-001	1.166745321111411E-001	2.911999926436692E+000
-6.4245051E-001	1.149207378910542E-001	2.924499926120916E+000
-6.4343840E-001	1.145746568924686E-001	2.936999925805139E+000
-6.4448768E-001	1.132407002341638E-001	2.949499925489363E+000
-6.4547062E-001	1.118223079212754E-001	2.961999925173586E+000
-6.4647555E-001	1.107327491610055E-001	2.974499924857810E+000
-6.4742798E-001	1.099485586088300E-001	2.986999924542033E+000
-6.4849329E-001	1.096516068962166E-001	2.999499924226257E+000
-6.4947593E-001	1.121525347525236E-001	3.011999923910480E+000
-6.5042496E-001	1.104765675331558E-001	3.024499923594703E+000
-6.5148407E-001	1.102050942219126E-001	3.036999923278927E+000
-6.5244550E-001	1.109409084208635E-001	3.049499922963150E+000
-6.5344977E-001	1.131304675495595E-001	3.061999922647374E+000
-6.5442550E-001	1.140104743123752E-001	3.074499922331597E+000
-6.5546978E-001	1.166839936964346E-001	3.086999922015821E+000
-6.5646726E-001	1.128657768080178E-001	3.099499921700044E+000
-6.5745658E-001	1.099974420787823E-001	3.111999921384268E+000
-6.5843213E-001	1.091849238118860E-001	3.124499921068491E+000
-6.5944433E-001	1.077031653528268E-001	3.136999920752714E+000
-6.6044593E-001	1.028760487706621E-001	3.149499920436938E+000
-6.6142339E-001	1.008481284450333E-001	3.161999920121161E+000
-6.6242057E-001	1.008799045431092E-001	3.174499919805385E+000
-6.6343552E-001	9.878995972671717E-002	3.186999919489608E+000
-6.6446930E-001	9.731309877045509E-002	3.199499919173832E+000
-6.6543937E-001	9.789898645249173E-002	3.211999918858055E+000
-6.6645795E-001	9.750069174418519E-002	3.224499918542278E+000
-6.6746736E-001	9.840214286842172E-002	3.236999918226502E+000
-6.6848367E-001	9.855207086510809E-002	3.249499917910725E+000
-6.6951698E-001	9.883621028157452E-002	3.261999917594949E+000
-6.7048472E-001	9.792862684848558E-002	3.274499917279172E+000
-6.7143965E-001	9.679473496223689E-002	3.286999916963396E+000
-6.7241204E-001	9.487360993901239E-002	3.299499916647619E+000
-6.7343891E-001	9.506477013270564E-002	3.311999916331843E+000
-6.7444408E-001	9.504007085121691E-002	3.324499916016066E+000
-6.7547917E-001	9.434496974392337E-002	3.336999915700289E+000
-6.7646563E-001	9.308988876962188E-002	3.349499915384513E+000
-6.7741925E-001	9.177040070720821E-002	3.361999915068736E+000
-6.7848378E-001	9.110931756229590E-002	3.374499914752960E+000
-6.7945975E-001	9.067098606776991E-002	3.386999914437183E+000
-6.8047649E-001	9.148427573501072E-002	3.399499914121407E+000
-6.8143439E-001	9.086196243394351E-002	3.411999913805630E+000
-6.8243772E-001	9.218961247739976E-002	3.424499913489854E+000
-6.8346345E-001	9.345556130574584E-002	3.436999913174077E+000
-6.8447667E-001	9.381007440817102E-002	3.449499912858300E+000
-6.8543738E-001	9.552737358899324E-002	3.461999912542524E+000
-6.8643171E-001	9.165256592643867E-002	3.474499912226747E+000
-6.8745911E-001	9.162416560831765E-002	3.486999911910971E+000
-6.8845522E-001	9.054473573845745E-002	3.499499911595194E+000
-6.8942755E-001	9.048876508972015E-002	3.511999911279418E+000
-6.9046944E-001	8.702642369296476E-002	3.524499910963641E+000
-6.9145906E-001	8.457218881327816E-002	3.536999910647864E+000
-6.9249356E-001	8.515285613214085E-002	3.549499910332088E+000
-6.9345582E-001	8.379299740218338E-002	3.561999910016311E+000
-6.9447523E-001	8.293138299551295E-002	3.574499909700535E+000
-6.9549251E-001	8.407288791516210E-002	3.586999909384758E+000
-6.9646615E-001	8.362502629980356E-002	3.599499909068982E+000
-6.9742262E-001	8.575965262120722E-002	3.611999908753205E+000
-6.9847494E-001	8.733170747325314E-002	3.624499908437429E+000
-6.9949234E-001	8.814158974252828E-002	3.636999908121652E+000
-7.0045996E-001	8.625743951143372E-002	3.649499907805875E+000
-7.0145893E-001	8.378242832328597E-002	3.661999907490099E+000
-7.0248079E-001	8.098786446668926E-002	3.674499907174322E+000
-7.0345378E-001	7.860089167488271E-002	3.686999906858546E+000
-7.0445746E-001	7.831665935819965E-002	3.699499906542769E+000
-7.0547545E-001	7.852066349282552E-002	3.711999906226993E+000
-7.0646399E-001	7.991094849336552E-002	3.724499905911216E+000
-7.0746171E-001	8.017311851013109E-002	3.736999905595439E+000
-7.0848429E-001	7.547795136182800E-002	3.749499905279663E+000
-7.0943779E-001	7.493634671395544E-002	3.761999904963886E+000
-7.1047783E-001	7.479602654433215E-002	3.774499904648110E+000
-7.1142823E-001	7.477740376184350E-002	3.786999904332333E+000
-7.1245760E-001	7.499080048043461E-002	3.799499904016557E+000
-7.1342403E-001	7.487583995472452E-002	3.811999903700780E+000
-7.1444315E-001	7.496934611083450E-002	3.824499903385004E+000
-7.1546286E-001	7.334549535257162E-002	3.836999903069227E+000
-7.1643633E-001	7.183806699249984E-002	3.849499902753450E+000
-7.1747088E-001	7.223710299773078E-002	3.861999902437674E+000
-7.1848387E-001	7.355699590808962E-002	3.874499902121897E+000
-7.1942532E-001	7.306282236892203E-002	3.886999901806121E+000
-7.2045326E-001	7.261752942406818E-002	3.899499901490344E+000
-7.2150010E-001	7.133776055464602E-002	3.911999901174568E+000
-7.2247672E-001	7.100940552575541E-002	3.924499900858791E+000
-7.2347701E-001	7.094590370529459E-002	3.936999900543015E+000
-7.2450149E-001	7.001591453121796E-002	3.949499900227238E+000
-7.2546804E-001	7.090289125751188E-002	3.961999899911461E+000
-7.2649437E-001	7.101334587872379E-002	3.974499899595685E+000
-7.2748119E-001	7.001350927367633E-002	3.986999899279908E+000
-7.2847939E-001	6.897156098884782E-002	3.999499898964132E+000
-7.2948509E-001	6.951968266990394E-002	4.011999898648355E+000
-7.3045194E-001	6.991631352943106E-002	4.024499898332579E+000
-7.3148894E-001	7.239719553001045E-002	4.036999898016802E+000
-7.3244405E-001	7.188322939719383E-002	4.049499897701025E+000
-7.3348188E-001	7.088244457173420E-002	4.061999897385249E+000
-7.3446161E-001	7.220770994014747E-002	4.074499897069472E+000
-7.3546493E-001	7.261122938091713E-002	4.086999896753696E+000
-7.3644978E-001	7.244557332436763E-002	4.099499896437919E+000
-7.3747766E-001	7.296270984425934E-002	4.111999896122143E+000
-7.3849487E-001	7.271366786417355E-002	4.124499895806366E+000
-7.3947197E-001	7.189570592821659E-002	4.136999895490590E+000
-7.4048465E-001	7.213825072578517E-002	4.149499895174813E+000
-7.4147636E-001	7.315206375157390E-002	4.161999894859036E+000
-7.4249786E-001	7.318402095445969E-002	4.174499894543260E+000
-7.4351084E-001	7.232370431995072E-002	4.186999894227483E+000
-7.4451548E-001	7.158522523070943E-002	4.199499893911707E+000
-7.4551386E-001	7.027483659441608E-002	4.211999893595930E+000
-7.4649078E-001	6.928195168634588E-002	4.224499893280154E+000
-7.4753314E-001	6.747162424774927E-002	4.236999892964377E+000
-7.4849570E-001	6.702471704410173E-002	4.249499892648601E+000
-7.4948162E-001	6.600600507192150E-002	4.261999892332824E+000
-7.5050133E-001	6.550777804791408E-002	4.274499892017047E+000
-7.5149035E-001	6.292060973923808E-002	4.286999891701271E+000
-7.5249153E-001	6.293628889180902E-002	4.299499891385494E+000
-7.5349003E-001	6.222361155821665E-002	4.311999891069718E+000
-7.5447285E-001	6.146710052506260E-002	4.324499890753941E+000
-7.5546533E-001	6.141548647117043E-002	4.336999890438165E+000
-7.5647765E-001	6.117117419200337E-002	4.349499890122388E+000
-7.5746059E-001	6.146842484442805E-002	4.361999889806611E+000
-7.5847942E-001	6.209238036637776E-002	4.374499889490835E+000
-7.5950968E-001	6.330595650693516E-002	4.386999889175058E+000
-7.6048702E-001	6.291989226381675E-002	4.399499888859282E+000
-7.6151478E-001	6.336948381760454E-002	4.411999888543505E+000
-7.6247114E-001	6.396477006114376E-002	4.424499888227729E+000
-7.6347762E-001	6.261492530549209E-002	4.436999887911952E+000
-7.6451445E-001	6.091429590423209E-002	4.449499887596176E+000
-7.6549858E-001	5.980812631778920E-002	4.461999887280399E+000
-7.6650393E-001	5.987928248056906E-002	4.474499886964622E+000
-7.6747108E-001	5.738535451902349E-002	4.486999886648846E+000
-7.6847726E-001	5.771119797728907E-002	4.499499886333069E+000
-7.6948065E-001	5.912291934232816E-002	4.511999886017293E+000
-7.7046669E-001	5.965577527351035E-002	4.524499885701516E+000
-7.7143455E-001	5.922952968900264E-002	4.536999885385740E+000
-7.7245140E-001	5.735742885480521E-002	4.549499885069963E+000
-7.7344334E-001	5.591506001413415E-002	4.561999884754187E+000
-7.7446949E-001	5.655332657539901E-002	4.574499884438410E+000
-7.7547181E-001	5.492748502902489E-002	4.586999884122633E+000
-7.7648908E-001	5.394621065930827E-002	4.599499883806857E+000
-7.7746224E-001	5.448494308733487E-002	4.611999883491080E+000
-7.7842444E-001	5.509016414789758E-002	4.624499883175304E+000
-7.7948737E-001	5.200147262127917E-002	4.636999882859527E+000
-7.8045392E-001	5.133530167060824E-002	4.649499882543751E+000
-7.8143936E-001	5.071456403398084E-002	4.661999882227974E+000
-7.8247136E-001	5.049054722311208E-002	4.674499881912197E+000
-7.8344417E-001	4.997434069272930E-002	4.686999881596421E+000
-7.8446555E-001	4.994516999427434E-002	4.699499881280644E+000
-7.8545910E-001	5.052613611319234E-002	4.711999880964868E+000
-7.8648603E-001	4.961008760139962E-002	4.724499880649091E+000
-7.8742933E-001	4.912825157572098E-002	4.736999880333315E+000
-7.8846776E-001	5.010457660533790E-002	4.749499880017538E+000
-7.8943759E-001	5.021934840087439E-002	4.761999879701762E+000
-7.9044545E-001	4.970356682672916E-002	4.774499879385985E+000
-7.9141581E-001	4.988001538298548E-002	4.786999879070208E+000
-7.9242188E-001	5.001845157739965E-002	4.799499878754432E+000
-7.9342365E-001	4.975936124329949E-002	4.811999878438655E+000
-7.9445845E-001	4.940630432047444E-002	4.824499878122879E+000
-7.9547977E-001	4.932119805969359E-002	4.836999877807102E+000
-7.9641539E-001	4.827675228575611E-002	4.849499877491326E+000
-7.9748046E-001	4.860969849704877E-002	4.861999877175549E+000
-7.9847771E-001	4.906273966012478E-002	4.874499876859772E+000
-7.9948300E-001	4.913149913634385E-002	4.886999876543996E+000
-8.0048478E-001	4.908787296153627E-002	4.899499876228219E+000
-8.0146694E-001	4.885215187858272E-002	4.911999875912443E+000
-8.0241227E-001	4.778437650277784E-002	4.924499875596666E+000
-8.0343878E-001	4.644037572922710E-002	4.936999875280890E+000
-8.0452377E-001	4.587888313210239E-002	4.949499874965113E+000
-8.0547559E-001	4.494439689456375E-002	4.961999874649337E+000
-8.0646062E-001	4.401877533037861E-002	4.974499874333560E+000
-8.0743378E-001	4.456520666055797E-002	4.986999874017783E+000
-8.0845493E-001	4.529145520966138E-002	4.999499873702007E+000
-8.0946499E-001	4.458255550707713E-002	5.011999873386230E+000
-8.1048524E-001	4.445892082896941E-002	5.024499873070454E+000
-8.1263739E-001	4.361830769164399E-002	5.051999872375745E+000
-8.1489068E-001	4.370135244180173E-002	5.079499871681037E+000
-8.1586063E-001	4.336852306663630E-002	5.091999871365260E+000
-8.1686652E-001	4.356734970603604E-002	5.104499871049484E+000
-8.1787211E-001	4.426879278357110E-002	5.116999870733707E+000
-8.1893045E-001	4.375249107112325E-002	5.129499870417931E+000
-8.1990713E-001	4.378338769380374E-002	5.141999870102154E+000
-8.2090402E-001	4.292730377865839E-002	5.154499869786378E+000
-8.2191873E-001	4.326610905679573E-002	5.166999869470601E+000
-8.2293952E-001	4.360800422915312E-002	5.179499869154824E+000
-8.2391113E-001	4.319759373607829E-002	5.191999868839048E+000
-8.2496017E-001	4.291778114659739E-002	5.204499868523271E+000
-8.2591498E-001	4.294926293438223E-002	5.216999868207495E+000
-8.2692021E-001	4.227331773805498E-002	5.229499867891718E+000
-8.2794130E-001	4.222386400648426E-002	5.241999867575942E+000
-8.2889026E-001	4.210268362845326E-002	5.254499867260165E+000
-8.2988733E-001	4.214543735257137E-002	5.266999866944388E+000
-8.3094269E-001	4.176514644866119E-002	5.279499866628612E+000
-8.3193243E-001	4.079451907316645E-002	5.291999866312835E+000
-8.3288914E-001	4.008944363745856E-002	5.304499865997059E+000
-8.3386236E-001	3.878791672832463E-002	5.316999865681282E+000
-8.3489418E-001	3.848191989450955E-002	5.329499865365506E+000
-8.3590961E-001	3.916565024476221E-002	5.341999865049729E+000
-8.3691335E-001	4.041089165012218E-002	5.354499864733953E+000
-8.3789480E-001	4.115761689224329E-002	5.366999864418176E+000
-8.3889323E-001	4.110115503229228E-002	5.379499864102399E+000
-8.3985591E-001	4.050240020608620E-002	5.391999863786623E+000
-8.4088427E-001	3.818456918986302E-002	5.404499863470846E+000
-8.4185857E-001	3.659503112569273E-002	5.416999863155070E+000
-8.4286886E-001	3.647635602296961E-002	5.429499862839293E+000
-8.4389234E-001	3.579578152528570E-002	5.441999862523517E+000
-8.4487939E-001	3.469977612479208E-002	5.454499862207740E+000
-8.4588718E-001	3.406587989576083E-002	5.466999861891964E+000
-8.4688860E-001	3.451646491442679E-002	5.479499861576187E+000
-8.4792322E-001	3.387754424139060E-002	5.491999861260410E+000
-8.4891111E-001	3.348509603290975E-002	5.504499860944634E+000
-8.4992731E-001	3.347981363047088E-002	5.516999860628857E+000
-8.5092372E-001	3.382839592754400E-002	5.529499860313081E+000
-8.5192335E-001	3.401383267538194E-002	5.541999859997304E+000
-8.5292631E-001	3.442099988896252E-002	5.554499859681528E+000
-8.5386604E-001	3.383310039845078E-002	5.566999859365751E+000
-8.5489273E-001	3.320925258411839E-002	5.579499859049974E+000
-8.5591739E-001	3.360146974279948E-002	5.591999858734198E+000
-8.5692960E-001	3.285183776384489E-002	5.604499858418421E+000
-8.5787505E-001	3.291833432428715E-002	5.616999858102645E+000
-8.5888082E-001	3.337912570514273E-002	5.629499857786868E+000
-8.5993278E-001	3.304877170202897E-002	5.641999857471092E+000
-8.6091721E-001	3.209911251429748E-002	5.654499857155315E+000
-8.6190635E-001	3.214187840491095E-002	5.666999856839539E+000
-8.6291051E-001	3.165905492067767E-002	5.679499856523762E+000
-8.6389184E-001	3.125944337201264E-002	5.691999856207985E+000
-8.6487371E-001	3.147926199306426E-002	5.704499855892209E+000
-8.6591578E-001	3.148372873346536E-002	5.716999855576432E+000
-8.6687988E-001	3.053861547313230E-002	5.729499855260656E+000
-8.6792105E-001	3.032115174313998E-002	5.741999854944879E+000
-8.6888242E-001	2.985500625340815E-002	5.754499854629103E+000
-8.6989170E-001	2.984028611328016E-002	5.766999854313326E+000
-8.7088591E-001	2.990247354514586E-002	5.779499853997550E+000
-8.7183154E-001	2.993085674253415E-002	5.791999853681773E+000
-8.7289011E-001	2.928816096765968E-002	5.804499853365996E+000
-8.7388986E-001	2.919215591291069E-002	5.816999853050220E+000
-8.7482524E-001	2.903708738679261E-002	5.829499852734443E+000
-8.7585843E-001	2.885053384272307E-002	5.841999852418667E+000
-8.7686688E-001	2.838392293949388E-002	5.854499852102890E+000
-8.7787986E-001	2.829400692072737E-002	5.866999851787114E+000
-8.7890768E-001	2.840062488045431E-002	5.879499851471337E+000
-8.7988365E-001	2.755939703465204E-002	5.891999851155560E+000
-8.8087946E-001	2.695701208594681E-002	5.904499850839784E+000
-8.8187468E-001	2.671511932931037E-002	5.916999850524007E+000
-8.8286740E-001	2.637664983811521E-002	5.929499850208231E+000
-8.8389516E-001	2.571807642007562E-002	5.941999849892454E+000
-8.8488865E-001	2.527584928458587E-002	5.954499849576678E+000
-8.8587928E-001	2.505397497935480E-002	5.966999849260901E+000
-8.8688636E-001	2.483821019561971E-002	5.979499848945125E+000
-8.8786715E-001	2.442425286088629E-002	5.991999848629348E+000
-8.8887769E-001	2.347433093497164E-002	6.004499848313571E+000
-8.8987148E-001	2.295076030176935E-002	6.016999847997795E+000
-8.9088559E-001	2.250521990323548E-002	6.029499847682018E+000
-8.9187509E-001	2.245156016475192E-002	6.041999847366242E+000
-8.9286339E-001	2.229653195655357E-002	6.054499847050465E+000
-8.9386255E-001	2.193885924662903E-002	6.066999846734689E+000
-8.9485896E-001	2.159485223793977E-002	6.079499846418912E+000
-8.9588720E-001	2.145160772843591E-002	6.091999846103136E+000
-8.9690793E-001	2.124391456916844E-002	6.104499845787359E+000
-8.9787370E-001	2.126299251098579E-002	6.116999845471582E+000
-8.9889234E-001	2.050573600245753E-002	6.129499845155806E+000
-8.9986926E-001	2.004533867243274E-002	6.141999844840029E+000
-9.0090466E-001	1.970980832278690E-002	6.154499844524253E+000
-9.0186542E-001	1.937247055823162E-002	6.166999844208476E+000
-9.0286207E-001	1.953284112155870E-002	6.179499843892700E+000
-9.0389955E-001	1.919799680607485E-002	6.191999843576923E+000
-9.0483969E-001	1.891402326558639E-002	6.204499843261146E+000
-9.0583193E-001	1.848730400178331E-002	6.216999842945370E+000
-9.0687591E-001	1.833732443101221E-002	6.229499842629593E+000
-9.0791041E-001	1.837140563258716E-002	6.241999842313817E+000
-9.0889329E-001	1.791778706202735E-002	6.254499841998040E+000
-9.0988207E-001	1.724551096222499E-002	6.266999841682264E+000
-9.1085964E-001	1.680837076379277E-002	6.279499841366487E+000
-9.1184056E-001	1.657061695082773E-002	6.291999841050711E+000
-9.1285467E-001	1.646139497120866E-002	6.304499840734934E+000
-9.1390604E-001	1.589047904209499E-002	6.316999840419157E+000
-9.1487050E-001	1.540026297671618E-002	6.329499840103381E+000
-9.1584927E-001	1.506363535104149E-002	6.341999839787604E+000
-9.1685951E-001	1.505516099808904E-002	6.354499839471828E+000
-9.1787219E-001	1.483589879518112E-002	6.366999839156051E+000
-9.1886604E-001	1.452407914085167E-002	6.379499838840275E+000
-9.1985577E-001	1.394031509014554E-002	6.391999838524498E+000
-9.2087114E-001	1.367554772741914E-002	6.404499838208721E+000
-9.2191225E-001	1.327781383960907E-002	6.416999837892945E+000
-9.2289406E-001	1.295426344879885E-002	6.429499837577168E+000
-9.2392421E-001	1.279988969049772E-002	6.441999837261392E+000
-9.2492706E-001	1.264589542267047E-002	6.454499836945615E+000
-9.2590755E-001	1.237873761212016E-002	6.466999836629839E+000
-9.2690963E-001	1.195044855919755E-002	6.479499836314062E+000
-9.2793232E-001	1.193749177560854E-002	6.491999835998286E+000
-9.2892855E-001	1.192065169186335E-002	6.504499835682509E+000
-9.2991811E-001	1.161555632846845E-002	6.516999835366732E+000
-9.3091220E-001	1.148392603223239E-002	6.529499835050956E+000
-9.3190360E-001	1.122489615859415E-002	6.541999834735179E+000
-9.3292999E-001	1.101537168606176E-002	6.554499834419403E+000
-9.3393290E-001	1.049511316869897E-002	6.566999834103626E+000
-9.3492234E-001	1.037104795577978E-002	6.579499833787850E+000
-9.3590605E-001	1.016109448002162E-002	6.591999833472073E+000
-9.3691307E-001	9.648766519465418E-003	6.604499833156297E+000
-9.3793678E-001	9.413050250952348E-003	6.616999832840520E+000
-9.3886769E-001	9.404624778818541E-003	6.629499832524743E+000
-9.3993884E-001	9.263810092653341E-003	6.641999832208967E+000
-9.4091934E-001	9.059473936434456E-003	6.654499831893190E+000
-9.4191456E-001	8.588406354040991E-003	6.666999831577414E+000
-9.4292164E-001	8.144486830026887E-003	6.679499831261637E+000
-9.4393760E-001	7.915121736524700E-003	6.691999830945861E+000
-9.4491905E-001	7.507535938606869E-003	6.704499830630084E+000
-9.4592947E-001	7.184618304000662E-003	6.716999830314307E+000
-9.4691181E-001	6.850485530377579E-003	6.729499829998531E+000
-9.4792324E-001	6.752202936305782E-003	6.741999829682754E+000
-9.4894379E-001	6.685350620857067E-003	6.754499829366978E+000
-9.4992983E-001	6.447400971323770E-003	6.766999829051201E+000
-9.5094049E-001	6.132871879403284E-003	6.779499828735425E+000
-9.5195204E-001	5.784279038293622E-003	6.791999828419648E+000
-9.5293218E-001	5.434532187685422E-003	6.804499828103872E+000
-9.5388281E-001	4.948359809077374E-003	6.816999827788095E+000
-9.5495355E-001	4.743613687631348E-003	6.829499827472318E+000
-9.5592374E-001	4.339831919467206E-003	6.841999827156542E+000
-9.5686954E-001	3.834524609517668E-003	6.854499826840765E+000
-9.5792979E-001	3.563790721662907E-003	6.866999826524989E+000
-9.6133268E-001	2.231597648702061E-003	6.909499825451348E+000
-9.6230596E-001	1.904114451744605E-003	6.921999825135572E+000
-9.6328628E-001	1.566035553234908E-003	6.934499824819795E+000
-9.6428174E-001	1.274235390193702E-003	6.946999824504019E+000
-9.6528250E-001	9.670834370697054E-004	6.959499824188242E+000
-9.6635902E-001	6.107312527341334E-004	6.971999823872466E+000
-9.6727747E-001	2.883265775265988E-004	6.984499823556689E+000
-9.6827930E-001	5.575791289015217E-005	6.996999823240913E+000
-9.6929789E-001	-2.288535985741037E-004	7.009499822925136E+000
-9.7027957E-001	-6.289552412519156E-004	7.021999822609359E+000
-9.7130448E-001	-1.025221856369763E-003	7.034499822293583E+000
-9.7231019E-001	-1.264717771570239E-003	7.046999821977806E+000
-9.7328568E-001	-1.469165511836588E-003	7.059499821662030E+000
-9.7431588E-001	-1.860127352323444E-003	7.071999821346253E+000
-9.7530538E-001	-2.167680977680907E-003	7.084499821030477E+000
-9.7627962E-001	-2.361700451209408E-003	7.096999820714700E+000
-9.7732741E-001	-2.617613596125834E-003	7.109499820398923E+000
-9.7832054E-001	-2.950775960503693E-003	7.121999820083147E+000
-9.7929984E-001	-3.273466927066940E-003	7.134499819767370E+000
-9.8029792E-001	-3.487756195097190E-003	7.146999819451594E+000
-9.8135197E-001	-3.750355359985857E-003	7.159499819135817E+000
-9.8229861E-001	-4.071461536417083E-003	7.171999818820041E+000
-9.8330605E-001	-4.381781382682276E-003	7.184499818504264E+000
-9.8431695E-001	-4.592170033728946E-003	7.196999818188488E+000
-9.8533720E-001	-4.863347973499577E-003	7.209499817872711E+000
-9.8634595E-001	-5.162598007960442E-003	7.221999817556934E+000
-9.8729324E-001	-5.446795722337236E-003	7.234499817241158E+000
-9.8831505E-001	-5.611488123295622E-003	7.246999816925381E+000
-9.8930973E-001	-5.813726512086392E-003	7.259499816609605E+000
-9.9030948E-001	-6.102527663318008E-003	7.271999816293828E+000
-9.9129891E-001	-6.357785999304019E-003	7.284499815978052E+000
-9.9228424E-001	-6.497423122146701E-003	7.296999815662275E+000
-9.9331510E-001	-6.670438974157270E-003	7.309499815346499E+000
-9.9428040E-001	-6.904590114919229E-003	7.321999815030722E+000
-9.9531823E-001	-7.113357147403403E-003	7.334499814714945E+000
-9.9630660E-001	-7.214095627984640E-003	7.346999814399169E+000
-9.9730003E-001	-7.333210443818128E-003	7.359499814083392E+000
-9.9832046E-001	-7.544319023985543E-003	7.371999813767616E+000
-9.9929178E-001	-7.701113836414974E-003	7.384499813451839E+000
-1.0003123E+000	-7.754395549194909E-003	7.396999813136063E+000
-1.0013142E+000	-7.841967689225682E-003	7.409499812820286E+000
-1.0023426E+000	-8.003031629327542E-003	7.421999812504509E+000
-1.0033015E+000	-8.149034217330514E-003	7.434499812188733E+000
-1.0043294E+000	-8.178204614523565E-003	7.446999811872956E+000
-1.0052897E+000	-8.249219746872843E-003	7.459499811557180E+000
-1.0062999E+000	-8.411646944512630E-003	7.471999811241403E+000
-1.0073274E+000	-8.548093702392512E-003	7.484499810925627E+000
-1.0082612E+000	-8.583359226014137E-003	7.496999810609850E+000
-1.0093058E+000	-8.662106758992871E-003	7.509499810294074E+000
-1.0103444E+000	-8.829502650206406E-003	7.521999809978297E+000
-1.0113523E+000	-8.990919381665685E-003	7.534499809662520E+000
-1.0123253E+000	-9.055536445148810E-003	7.546999809346744E+000
-1.0133250E+000	-9.151292179182841E-003	7.559499809030967E+000
-1.0142555E+000	-9.349029216320442E-003	7.571999808715191E+000
-1.0153102E+000	-9.526629303684114E-003	7.584499808399414E+000
-1.0162923E+000	-9.618014725891105E-003	7.596999808083638E+000
-1.0172956E+000	-9.771916033102346E-003	7.609499807767861E+000
-1.0182815E+000	-1.001922110420611E-002	7.621999807452085E+000
-1.0193012E+000	-1.026890411301053E-002	7.634499807136308E+000
-1.0202764E+000	-1.041302463328888E-002	7.646999806820531E+000
-1.0213039E+000	-1.060824177055331E-002	7.659499806504755E+000
-1.0234159E+000	-1.121438375531165E-002	7.686999805810046E+000
-1.0256751E+000	-1.158442031478102E-002	7.714499805115338E+000
-1.0266271E+000	-1.184625618766619E-002	7.726999804799561E+000
-1.0276349E+000	-1.215689345673118E-002	7.739499804483785E+000
-1.0286794E+000	-1.256575581581798E-002	7.751999804168008E+000
-1.0296614E+000	-1.280434322216660E-002	7.764499803852232E+000
-1.0306432E+000	-1.308697630303773E-002	7.776999803536455E+000
-1.0316389E+000	-1.347358713378553E-002	7.789499803220679E+000
-1.0326614E+000	-1.389777506543993E-002	7.801999802904902E+000
-1.0336531E+000	-1.418945427516968E-002	7.814499802589125E+000
-1.0346130E+000	-1.449761704290199E-002	7.826999802273349E+000
-1.0356632E+000	-1.495203132850423E-002	7.839499801957572E+000
-1.0366538E+000	-1.544445937976148E-002	7.851999801641796E+000
-1.0376947E+000	-1.578139009230572E-002	7.864499801326019E+000
-1.0386976E+000	-1.621040125558333E-002	7.876999801010243E+000
-1.0396889E+000	-1.662907033928257E-002	7.889499800694466E+000
-1.0407059E+000	-1.719464159829096E-002	7.901999800378690E+000
-1.0416592E+000	-1.757172527532391E-002	7.914499800062913E+000
-1.0426576E+000	-1.811009681937104E-002	7.926999799747136E+000
-1.0436546E+000	-1.862416229214538E-002	7.939499799431360E+000
-1.0446411E+000	-1.917646131308476E-002	7.951999799115583E+000
-1.0456520E+000	-1.972354960996155E-002	7.964499798799807E+000
-1.0466980E+000	-2.026015159598107E-002	7.976999798484030E+000
-1.0476774E+000	-2.098822236792604E-002	7.989499798168254E+000
-1.0486997E+000	-2.173143078159356E-002	8.001999797852477E+000
-1.0497141E+000	-2.247230336342367E-002	8.014499797536701E+000
-1.0506902E+000	-2.314796392974616E-002	8.026999797220924E+000
-1.0516913E+000	-2.409410777364596E-002	8.039499796905147E+000
-1.0526834E+000	-2.515978451906209E-002	8.051999796589371E+000
-1.0536749E+000	-2.610512009082483E-002	8.064499796273594E+000
-1.0547107E+000	-2.737540908804340E-002	8.076999795957818E+000
-1.0556921E+000	-2.899284745030051E-002	8.089499795642041E+000
-1.0566853E+000	-3.106538027731438E-002	8.101999795326265E+000
-1.0576766E+000	-3.336250820681885E-002	8.114499795010488E+000
-1.0586473E+000	-3.668384620184607E-002	8.126999794694711E+000
-1.0596882E+000	-4.158025545821026E-002	8.139499794378935E+000
-1.0606595E+000	-4.610250701426555E-002	8.151999794063158E+000
-1.0616990E+000	-5.397639942678123E-002	8.164499793747382E+000
-1.0626638E+000	-6.233173791475755E-002	8.176999793431605E+000
-1.0636694E+000	-7.328583274413780E-002	8.189499793115829E+000
-1.0658906E+000	-1.043529231382891E-001	8.216999792421120E+000
-1.0680363E+000	-1.497780416747665E-001	8.244499791726412E+000
-1.0690396E+000	-1.758962972540061E-001	8.256999791410635E+000
-1.0700600E+000	-2.055198752187852E-001	8.269499791094859E+000
-1.0709938E+000	-2.425379093730875E-001	8.281999790779082E+000
-1.0720068E+000	-2.870049439683784E-001	8.294499790463306E+000
-1.0730318E+000	-3.294919756202332E-001	8.306999790147529E+000
-1.0740132E+000	-3.887156398833493E-001	8.319499789831752E+000
-1.0750445E+000	-4.462363268276448E-001	8.331999789515976E+000
-1.0760311E+000	-5.043329171161055E-001	8.344499789200199E+000
-1.0770302E+000	-5.659732205538253E-001	8.356999788884423E+000
-1.0780083E+000	-6.351995909973223E-001	8.369499788568646E+000
-1.0790184E+000	-7.082795951892367E-001	8.381999788252870E+000
-1.0800251E+000	-7.775313637371966E-001	8.394499787937093E+000
-1.0810448E+000	-8.527522403358816E-001	8.406999787621317E+000
-1.0820153E+000	-9.360096487734033E-001	8.419499787305540E+000
-1.0842466E+000	-1.143523355674679E+000	8.446999786610832E+000
-1.0864502E+000	-1.356560609668316E+000	8.474499785916123E+000
-1.0874428E+000	-1.464288272279585E+000	8.486999785600347E+000
-1.0884205E+000	-1.577454389633935E+000	8.499499785284570E+000
-1.0894326E+000	-1.683839562714893E+000	8.511999784968793E+000
-1.0903531E+000	-1.791378056826563E+000	8.524499784653017E+000
-1.0913979E+000	-1.901086227702242E+000	8.536999784337240E+000
-1.0924281E+000	-2.007412881781041E+000	8.549499784021464E+000
-1.0934255E+000	-2.111625008207440E+000	8.561999783705687E+000
-1.0944201E+000	-2.218881093488434E+000	8.574499783389911E+000
-1.0954089E+000	-2.329735232827563E+000	8.586999783074134E+000
-1.0964298E+000	-2.438291979049549E+000	8.599499782758357E+000
-1.0974369E+000	-2.542963554816588E+000	8.611999782442581E+000
-1.0984286E+000	-2.644427787283792E+000	8.624499782126804E+000
-1.0994061E+000	-2.747396867411830E+000	8.636999781811028E+000
-1.1004239E+000	-2.848873996954644E+000	8.649499781495251E+000
-1.1014699E+000	-2.951265252616622E+000	8.661999781179475E+000
-1.1024120E+000	-3.055513190519477E+000	8.674499780863698E+000
-1.1034552E+000	-3.159112802418399E+000	8.686999780547922E+000
-1.1044397E+000	-3.260746584388230E+000	8.699499780232145E+000
-1.1054462E+000	-3.363491762185543E+000	8.711999779916368E+000
-1.1064367E+000	-3.465039624957825E+000	8.724499779600592E+000
-1.1074436E+000	-3.572532041929676E+000	8.736999779284815E+000
-1.1084366E+000	-3.675950188603657E+000	8.749499778969039E+000
-1.1094172E+000	-3.775745473868611E+000	8.761999778653262E+000
-1.1104043E+000	-3.875589313148911E+000	8.774499778337486E+000
-1.1114470E+000	-3.975353813308871E+000	8.786999778021709E+000
-1.1124610E+000	-4.072619973981407E+000	8.799499777705933E+000
-1.1134228E+000	-4.169494621100866E+000	8.811999777390156E+000
-1.1144240E+000	-4.265315195403971E+000	8.824499777074379E+000
-1.1154273E+000	-4.362682959286573E+000	8.836999776758603E+000
-1.1164589E+000	-4.459422508330874E+000	8.849499776442826E+000
-1.1174269E+000	-4.556046132951806E+000	8.861999776127050E+000
-1.1184790E+000	-4.652186348576802E+000	8.874499775811273E+000
-1.1194676E+000	-4.747862723345534E+000	8.886999775495497E+000
-1.1204593E+000	-4.841058645898464E+000	8.899499775179720E+000
-1.1214004E+000	-4.935183660326786E+000	8.911999774863943E+000
-1.1224285E+000	-5.029198514112409E+000	8.924499774548167E+000
-1.1234446E+000	-5.123221417556371E+000	8.936999774232390E+000
-1.1244476E+000	-5.216077744350770E+000	8.949499773916614E+000
-1.1254420E+000	-5.311609396755344E+000	8.961999773600837E+000
-1.1264826E+000	-5.410353980588084E+000	8.974499773285061E+000
-1.1274779E+000	-5.503560058284712E+000	8.986999772969284E+000
-1.1284822E+000	-5.596108327287489E+000	8.999499772653508E+000
-1.1294762E+000	-5.687868363068759E+000	9.011999772337731E+000
-1.1304436E+000	-5.779449530642978E+000	9.024499772021954E+000
-1.1314838E+000	-5.871930804879696E+000	9.036999771706178E+000
-1.1324432E+000	-5.962893763502606E+000	9.049499771390401E+000
-1.1334558E+000	-6.053309825359904E+000	9.061999771074625E+000
-1.1344671E+000	-6.144640484334605E+000	9.074499770758848E+000
-1.1354743E+000	-6.235294255206249E+000	9.086999770443072E+000
-1.1365137E+000	-6.325514130947909E+000	9.099499770127295E+000
-1.1374580E+000	-6.416563862868173E+000	9.111999769811518E+000
-1.1385137E+000	-6.508610166173526E+000	9.124499769495742E+000
-1.1394726E+000	-6.600723442754514E+000	9.136999769179965E+000
-1.1404670E+000	-6.692431695672155E+000	9.149499768864189E+000
-1.1414738E+000	-6.782464190741038E+000	9.161999768548412E+000
-1.1424736E+000	-6.873009888313646E+000	9.174499768232636E+000
-1.1434462E+000	-6.963764347623851E+000	9.186999767916859E+000
-1.1444736E+000	-7.053812811074920E+000	9.199499767601083E+000
-1.1453987E+000	-7.143461493110010E+000	9.211999767285306E+000
-1.1464294E+000	-7.233087298770698E+000	9.224499766969529E+000
-1.1474535E+000	-7.323909991731199E+000	9.236999766653753E+000
-1.1484195E+000	-7.413157405081169E+000	9.249499766337976E+000
-1.1494640E+000	-7.502246484293487E+000	9.261999766022200E+000
-1.1504171E+000	-7.591709220618526E+000	9.274499765706423E+000
-1.1514595E+000	-7.681247369874086E+000	9.286999765390647E+000
-1.1524478E+000	-7.770799483167167E+000	9.299499765074870E+000
-1.1534753E+000	-7.859702810911244E+000	9.311999764759094E+000
-1.1544476E+000	-7.948702032236682E+000	9.324499764443317E+000
-1.1554785E+000	-8.039572899673288E+000	9.336999764127540E+000
-1.1564740E+000	-8.128341717198936E+000	9.349499763811764E+000
-1.1574680E+000	-8.216660744776675E+000	9.361999763495987E+000
-1.1584468E+000	-8.304349262071327E+000	9.374499763180211E+000
-1.1594443E+000	-8.392385558003447E+000	9.386999762864434E+000
-1.1604391E+000	-8.481111680119369E+000	9.399499762548658E+000
-1.1614287E+000	-8.569282324275065E+000	9.411999762232881E+000
-1.1624647E+000	-8.657698619566112E+000	9.424499761917104E+000
-1.1634662E+000	-8.747210724855833E+000	9.436999761601328E+000
-1.1644623E+000	-8.835158493914463E+000	9.449499761285551E+000
-1.1654944E+000	-8.922959987650586E+000	9.461999760969775E+000
-1.1664706E+000	-9.012505697228050E+000	9.474499760653998E+000
-1.1674789E+000	-9.100194987796588E+000	9.486999760338222E+000
-1.1684691E+000	-9.187672615356231E+000	9.499499760022445E+000
-1.1694559E+000	-9.276084685919855E+000	9.511999759706669E+000
-1.1704880E+000	-9.363729251363438E+000	9.524499759390892E+000
-1.1714568E+000	-9.451103146897516E+000	9.536999759075115E+000
-1.1724319E+000	-9.539115680762876E+000	9.549499758759339E+000
-1.1734911E+000	-9.625640920806841E+000	9.561999758443562E+000
-1.1744682E+000	-9.713242573783404E+000	9.574499758127786E+000
-1.1754456E+000	-9.800202645538832E+000	9.586999757812009E+000
-1.1764622E+000	-9.887683669900269E+000	9.599499757496233E+000
-1.1774731E+000	-9.974863073389432E+000	9.611999757180456E+000
-1.1784396E+000	-1.006239105437301E+001	9.624599756862153E+000
-1.1794481E+000	-1.014996069838249E+001	9.636999756548903E+000
-1.1804841E+000	-1.023659012697590E+001	9.649499756233126E+000
-1.1814363E+000	-1.032294482161245E+001	9.661999755917350E+000
-1.1824738E+000	-1.041079647969784E+001	9.674499755601573E+000
-1.1834223E+000	-1.049720510383628E+001	9.686999755285797E+000
-1.1843836E+000	-1.058366130931036E+001	9.699599754967494E+000
-1.1854212E+000	-1.066968354924265E+001	9.711999754654244E+000
-1.1863827E+000	-1.075807676428838E+001	9.724599754335941E+000
-1.1874324E+000	-1.084490281290239E+001	9.736999754022690E+000
-1.1884573E+000	-1.093196078939800E+001	9.749599753704388E+000
-1.1906340E+000	-1.110095134870569E+001	9.776999753012205E+000
-1.1928421E+000	-1.127307990818682E+001	9.804599752314971E+000
-1.1938730E+000	-1.135908760281200E+001	9.816999752001720E+000
-1.1948786E+000	-1.144481431874664E+001	9.829599751683418E+000
-1.1958244E+000	-1.153057578857987E+001	9.841999751370167E+000
-1.1968366E+000	-1.161633550149526E+001	9.854599751051865E+000
-1.1978126E+000	-1.170160451052442E+001	9.866999750738614E+000
-1.1987860E+000	-1.178684155288198E+001	9.879599750420311E+000
-1.1998122E+000	-1.187159469834572E+001	9.891999750107061E+000
-1.2008672E+000	-1.195862460735120E+001	9.904599749788758E+000
-1.2013284E+000	-1.199842357635498E+001	9.910599749637186E+000
-1.2014048E+000	-1.199906015396118E+001	9.911799749606871E+000
-1.2007073E+000	-1.196939709152861E+001	9.918799749430036E+000
-1.1997287E+000	-1.191771933329954E+001	9.931199749116786E+000
-1.1987181E+000	-1.186401979266003E+001	9.943799748798483E+000
-1.1977202E+000	-1.181032925054782E+001	9.956199748485233E+000
-1.1967005E+000	-1.175556138069152E+001	9.968799748166930E+000
-1.1957757E+000	-1.170101579793155E+001	9.981199747853680E+000
-1.1947281E+000	-1.164447462337000E+001	9.993799747535377E+000
-1.1937145E+000	-1.158666861505208E+001	1.000619974722213E+001
-1.1927247E+000	-1.152568971849092E+001	1.001879974690382E+001
-1.1917149E+000	-1.146755398060416E+001	1.003119974659057E+001
-1.1907271E+000	-1.141031000328560E+001	1.004379974627227E+001
-1.1896935E+000	-1.135140551156587E+001	1.005619974595902E+001
-1.1886708E+000	-1.129120012328377E+001	1.006879974564072E+001
-1.1876930E+000	-1.123097278979435E+001	1.008129974532494E+001
-1.1867539E+000	-1.117218365728675E+001	1.009379974500916E+001
-1.1857229E+000	-1.111284190669130E+001	1.010619974469591E+001
-1.1847049E+000	-1.104846927186560E+001	1.011879974437761E+001
-1.1837282E+000	-1.098678673307101E+001	1.013119974406436E+001
-1.1827331E+000	-1.092542926727653E+001	1.014379974374606E+001
-1.1817169E+000	-1.086288142709697E+001	1.015629974343028E+001
-1.1807216E+000	-1.080185033709161E+001	1.016879974311451E+001
-1.1796921E+000	-1.073977000810945E+001	1.018129974279873E+001
-1.1787174E+000	-1.067712140961416E+001	1.019379974248295E+001
-1.1777333E+000	-1.061386568888668E+001	1.020619974216970E+001
-1.1767123E+000	-1.055013577059083E+001	1.021879974185140E+001
-1.1757655E+000	-1.048446657827918E+001	1.023119974153815E+001
-1.1747270E+000	-1.042112742178142E+001	1.024379974121985E+001
-1.1737176E+000	-1.035746189895252E+001	1.025629974090407E+001
-1.1727175E+000	-1.029284979926334E+001	1.026879974058829E+001
-1.1717641E+000	-1.023017436409728E+001	1.028129974027252E+001
-1.1707170E+000	-1.016564353679614E+001	1.029379973995674E+001
-1.1697483E+000	-1.010111812680783E+001	1.030629973964096E+001
-1.1687433E+000	-1.003478145399796E+001	1.031879973932519E+001
-1.1677527E+000	-9.969032967474021E+000	1.033129973900941E+001
-1.1667793E+000	-9.904018663756915E+000	1.034379973869363E+001
-1.1657288E+000	-9.838588891104280E+000	1.035629973837786E+001
-1.1647437E+000	-9.772209144507823E+000	1.036879973806208E+001
-1.1637567E+000	-9.709110324145740E+000	1.038129973774630E+001
-1.1627493E+000	-9.641683276254838E+000	1.039379973743053E+001
-1.1617634E+000	-9.576195487676273E+000	1.040629973711475E+001
-1.1607451E+000	-9.509179383205890E+000	1.041879973679897E+001
-1.1597655E+000	-9.442450470960942E+000	1.043129973648320E+001
-1.1587610E+000	-9.374816752083163E+000	1.044379973616742E+001
-1.1578060E+000	-9.307856243866183E+000	1.045629973585164E+001
-1.1567637E+000	-9.242911292816551E+000	1.046879973553587E+001
-1.1557592E+000	-9.174523622102555E+000	1.048129973522009E+001
-1.1547674E+000	-9.109248826945446E+000	1.049379973490431E+001
-1.1537610E+000	-9.042766557668731E+000	1.050629973458854E+001
-1.1527773E+000	-8.975901375835093E+000	1.051879973427276E+001
-1.1517699E+000	-8.906288939217703E+000	1.053129973395698E+001
-1.1507195E+000	-8.837985269503562E+000	1.054379973364121E+001
-1.1497512E+000	-8.770805669501897E+000	1.055629973332543E+001
-1.1487271E+000	-8.705723530657181E+000	1.056879973300966E+001
-1.1477615E+000	-8.636109414853550E+000	1.058129973269388E+001
-1.1467172E+000	-8.566788594504544E+000	1.059379973237810E+001
-1.1457382E+000	-8.502129280950555E+000	1.060629973206233E+001
-1.1447768E+000	-8.431482045467703E+000	1.061879973174655E+001
-1.1437685E+000	-8.364170811503925E+000	1.063129973143077E+001
-1.1427528E+000	-8.296557167057074E+000	1.064379973111500E+001
-1.1417605E+000	-8.226819884445895E+000	1.065629973079922E+001
-1.1407613E+000	-8.160318405012628E+000	1.066879973048344E+001
-1.1397820E+000	-8.089522064254936E+000	1.068129973016767E+001
-1.1387880E+000	-8.023262310285332E+000	1.069379972985189E+001
-1.1377461E+000	-7.954665228637346E+000	1.070629972953611E+001
-1.1367413E+000	-7.885271886718400E+000	1.071879972922034E+001
-1.1357690E+000	-7.817712719416051E+000	1.073129972890456E+001
-1.1347536E+000	-7.748109169215638E+000	1.074379972858878E+001
-1.1337450E+000	-7.679368280222917E+000	1.075629972827301E+001
-1.1327546E+000	-7.610365655051439E+000	1.076879972795723E+001
-1.1317240E+000	-7.542060290032985E+000	1.078129972764145E+001
-1.1307724E+000	-7.471871506733194E+000	1.079379972732568E+001
-1.1297680E+000	-7.403593720922657E+000	1.080629972700990E+001
-1.1287304E+000	-7.333948448743826E+000	1.081879972669412E+001
-1.1277466E+000	-7.264526879709003E+000	1.083129972637835E+001
-1.1267147E+000	-7.194483754180679E+000	1.084379972606257E+001
-1.1257130E+000	-7.124489743676424E+000	1.085629972574679E+001
-1.1246817E+000	-7.054393112393342E+000	1.086879972543102E+001
-1.1236928E+000	-6.981539417689987E+000	1.088129972511524E+001
-1.1227002E+000	-6.912833306894058E+000	1.089379972479946E+001
-1.1217213E+000	-6.843906234187301E+000	1.090629972448369E+001
-1.1206710E+000	-6.774626080212812E+000	1.091879972416791E+001
-1.1196824E+000	-6.705552943007270E+000	1.093129972385213E+001
-1.1186979E+000	-6.637096519404587E+000	1.094379972353636E+001
-1.1176938E+000	-6.565666107275668E+000	1.095629972322058E+001
-1.1167176E+000	-6.496192174764047E+000	1.096879972290481E+001
-1.1156993E+000	-6.427325032302889E+000	1.098129972258903E+001
-1.1147307E+000	-6.355294445041721E+000	1.099379972227325E+001
-1.1137064E+000	-6.288352347409315E+000	1.100629972195748E+001
-1.1127231E+000	-6.219045799669061E+000	1.101879972164170E+001
-1.1117294E+000	-6.149230845642862E+000	1.103129972132592E+001
-1.1106491E+000	-6.079092587033898E+000	1.104379972101015E+001
-1.1096903E+000	-6.008482719700766E+000	1.105629972069437E+001
-1.1086880E+000	-5.942044625834853E+000	1.106879972037859E+001
-1.1077183E+000	-5.868798885189449E+000	1.108129972006282E+001
-1.1067191E+000	-5.799082883190181E+000	1.109379971974704E+001
-1.1057558E+000	-5.731760172946778E+000	1.110629971943126E+001
-1.1047515E+000	-5.662297642811936E+000	1.111879971911549E+001
-1.1037467E+000	-5.590530906918264E+000	1.113129971879971E+001
-1.1027571E+000	-5.520397507319487E+000	1.114379971848393E+001
-1.1017572E+000	-5.452581738606511E+000	1.115629971816816E+001
-1.1007298E+000	-5.380862568549446E+000	1.116879971785238E+001
-1.0997547E+000	-5.311855892536435E+000	1.118129971753660E+001
-1.0987182E+000	-5.240605740054001E+000	1.119379971722083E+001
-1.0977087E+000	-5.170899050125087E+000	1.120629971690505E+001
-1.0967294E+000	-5.101066991553736E+000	1.121879971658927E+001
-1.0957012E+000	-5.032225747271411E+000	1.123129971627350E+001
-1.0946834E+000	-4.962989481986469E+000	1.124379971595772E+001
-1.0936953E+000	-4.892955331077362E+000	1.125629971564194E+001
-1.0927206E+000	-4.825567154102899E+000	1.126879971532617E+001
-1.0917180E+000	-4.753742345309220E+000	1.128129971501039E+001
-1.0907376E+000	-4.685561086893777E+000	1.129379971469461E+001
-1.0897698E+000	-4.615940127042467E+000	1.130629971437884E+001
-1.0887704E+000	-4.543532990407030E+000	1.131879971406306E+001
-1.0877050E+000	-4.475207803258933E+000	1.133129971374728E+001
-1.0867302E+000	-4.405444662774070E+000	1.134379971343151E+001
-1.0856692E+000	-4.339215125278571E+000	1.135629971311573E+001
-1.0847545E+000	-4.269203700058686E+000	1.136879971279996E+001
-1.0837810E+000	-4.198157248310501E+000	1.138129971248418E+001
-1.0816016E+000	-4.070440306537408E+000	1.140879971178947E+001
-1.0793506E+000	-3.936640148470460E+000	1.143629971109476E+001
-1.0783583E+000	-3.868013000293132E+000	1.144879971077899E+001
-1.0773463E+000	-3.799015923419532E+000	1.146129971046321E+001
-1.0763128E+000	-3.729568346359187E+000	1.147379971014743E+001
-1.0753382E+000	-3.661437148674878E+000	1.148629970983166E+001
-1.0743512E+000	-3.592294212896372E+000	1.149879970951588E+001
-1.0733391E+000	-3.523324469311365E+000	1.151129970920010E+001
-1.0723135E+000	-3.454798608818756E+000	1.152379970888433E+001
-1.0713072E+000	-3.386663967819761E+000	1.153629970856855E+001
-1.0703535E+000	-3.318376340393321E+000	1.154879970825277E+001
-1.0692995E+000	-3.249246302273178E+000	1.156129970793700E+001
-1.0683097E+000	-3.181652419324529E+000	1.157379970762122E+001
-1.0673314E+000	-3.114787588135625E+000	1.158629970730544E+001
-1.0663525E+000	-3.045748707162030E+000	1.159879970698967E+001
-1.0653418E+000	-2.977816340453609E+000	1.161129970667389E+001
-1.0643194E+000	-2.910601876321282E+000	1.162379970635811E+001
-1.0633250E+000	-2.842715419741737E+000	1.163629970604234E+001
-1.0623168E+000	-2.775253130344765E+000	1.164879970572656E+001
-1.0613041E+000	-2.707640181584224E+000	1.166129970541078E+001
-1.0603282E+000	-2.640549621489335E+000	1.167379970509501E+001
-1.0593877E+000	-2.573620583230287E+000	1.168629970477923E+001
-1.0583392E+000	-2.506613457775007E+000	1.169879970446345E+001
-1.0573455E+000	-2.439591232164389E+000	1.171129970414768E+001
-1.0562925E+000	-2.372532301793044E+000	1.172379970383190E+001
-1.0553496E+000	-2.306993436961484E+000	1.173629970351612E+001
-1.0543523E+000	-2.240996818745593E+000	1.174879970320035E+001
-1.0533485E+000	-2.173720562046292E+000	1.176129970288457E+001
-1.0523607E+000	-2.108072694224695E+000	1.177379970256879E+001
-1.0513397E+000	-2.043329495784134E+000	1.178629970225302E+001
-1.0503161E+000	-1.976514063343139E+000	1.179879970193724E+001
-1.0493588E+000	-1.910791353458716E+000	1.181129970162146E+001
-1.0483121E+000	-1.844949911670049E+000	1.182379970130569E+001
-1.0473539E+000	-1.779748866182054E+000	1.183629970098991E+001
-1.0463322E+000	-1.715120268109743E+000	1.184879970067414E+001
-1.0453291E+000	-1.650479741329171E+000	1.186129970035836E+001
-1.0443333E+000	-1.586593800507082E+000	1.187379970004258E+001
-1.0433547E+000	-1.523156343120533E+000	1.188629969972681E+001
-1.0423790E+000	-1.460045625383607E+000	1.189879969941103E+001
-1.0413413E+000	-1.396569878069890E+000	1.191129969909525E+001
-1.0403572E+000	-1.333420671306421E+000	1.192379969877948E+001
-1.0393685E+000	-1.271496506396957E+000	1.193629969846370E+001
-1.0383815E+000	-1.209794736727849E+000	1.194879969814792E+001
-1.0373720E+000	-1.147495528410749E+000	1.196129969783215E+001
-1.0363477E+000	-1.086843046686788E+000	1.197379969751637E+001
-1.0353082E+000	-1.027040325589912E+000	1.198629969720059E+001
-1.0342987E+000	-9.663067435779145E-001	1.199879969688482E+001
-1.0333236E+000	-9.068869915273445E-001	1.201129969656904E+001
-1.0323513E+000	-8.486052569378870E-001	1.202379969625326E+001
-1.0312983E+000	-7.906961045391370E-001	1.203629969593749E+001
-1.0303392E+000	-7.337921660537603E-001	1.204879969562171E+001
-1.0293275E+000	-6.779593181556702E-001	1.206129969530593E+001
-1.0283636E+000	-6.232479181323591E-001	1.207379969499016E+001
-1.0273311E+000	-5.695280548599015E-001	1.208629969467438E+001
-1.0263485E+000	-5.167686766140971E-001	1.209879969435860E+001
-1.0253576E+000	-4.652726920376042E-001	1.211129969404283E+001
-1.0231375E+000	-3.622729862025187E-001	1.213879969334812E+001
-1.0210055E+000	-2.660592243767046E-001	1.216629969265341E+001
-1.0199339E+000	-2.257354881522979E-001	1.217879969233763E+001
-1.0189894E+000	-1.885031361544063E-001	1.219129969202186E+001
-1.0179688E+000	-1.542101514614409E-001	1.220379969170608E+001
-1.0169626E+000	-1.233098138884870E-001	1.221629969139030E+001
-1.0159767E+000	-9.543394469420452E-002	1.222879969107453E+001
-1.0149873E+000	-7.058562533432977E-002	1.224129969075875E+001
-1.0139874E+000	-4.930549145986640E-002	1.225379969044297E+001
-1.0129424E+000	-3.034245685208914E-002	1.226629969012720E+001
-1.0119892E+000	-1.322460300122785E-002	1.227879968981142E+001
-1.0109675E+000	2.210092309633722E-003	1.229129968949565E+001
-1.0099423E+000	1.708845182136948E-002	1.230379968917987E+001
-1.0089376E+000	3.291257421778132E-002	1.231629968886409E+001
-1.0079581E+000	4.999727176393542E-002	1.232879968854832E+001
-1.0069592E+000	6.897679641836041E-002	1.234129968823254E+001
-1.0059682E+000	9.071939208557289E-002	1.235379968791676E+001
-1.0049318E+000	1.153418616921378E-001	1.236629968760099E+001
-1.0039581E+000	1.429637251151568E-001	1.237879968728521E+001
-1.0029675E+000	1.737647405634917E-001	1.239129968696943E+001
-1.0019730E+000	2.076407117717847E-001	1.240379968665366E+001
-1.0009508E+000	2.447689949679168E-001	1.241629968633788E+001
-9.9994642E-001	2.848082784385910E-001	1.242879968602210E+001
-9.9894905E-001	3.282708482876724E-001	1.244129968570633E+001
-9.9795371E-001	3.743861980813876E-001	1.245379968539055E+001
-9.9692011E-001	4.232570709203145E-001	1.246629968507477E+001
-9.9592835E-001	4.755106428111464E-001	1.247879968475900E+001
-9.9489492E-001	5.290604381173960E-001	1.249129968444322E+001
-9.9392670E-001	5.850073804973537E-001	1.250379968412744E+001
-9.9289423E-001	6.438769838767282E-001	1.251629968381167E+001
-9.9193382E-001	7.040410416666418E-001	1.252879968349589E+001
-9.9097049E-001	7.652922030102616E-001	1.254129968318011E+001
-9.8995000E-001	8.283620714404023E-001	1.255379968286434E+001
-9.8896587E-001	8.928707461117895E-001	1.256629968254856E+001
-9.8792857E-001	9.587566006174768E-001	1.257879968223278E+001
-9.8697329E-001	1.025321480943359E+000	1.259129968191701E+001
-9.8478544E-001	1.176934936362645E+000	1.261879968122230E+001
-9.8257208E-001	1.331211793699379E+000	1.264629968052759E+001
-9.8157841E-001	1.400985702129441E+000	1.265879968021181E+001
-9.8057854E-001	1.470670399740794E+000	1.267129967989604E+001
-9.7953683E-001	1.541343389173214E+000	1.268379967958026E+001
-9.7859025E-001	1.611562154653390E+000	1.269629967926448E+001
-9.7758371E-001	1.682291291011065E+000	1.270879967894871E+001
-9.7657520E-001	1.753542978991895E+000	1.272129967863293E+001
-9.7557962E-001	1.824784280111394E+000	1.273379967831715E+001
-9.7456938E-001	1.896267344129456E+000	1.274629967800138E+001
-9.7354668E-001	1.968575304595852E+000	1.275879967768560E+001
-9.7259867E-001	2.039607242740999E+000	1.277129967736983E+001
-9.7159290E-001	2.111623446933827E+000	1.278379967705405E+001
-9.7057110E-001	2.184588170191006E+000	1.279629967673827E+001
-9.6958274E-001	2.256616068172402E+000	1.280879967642250E+001
-9.6857607E-001	2.328447511604821E+000	1.282129967610672E+001
-9.6758461E-001	2.401183058895789E+000	1.283379967579094E+001
-9.6658200E-001	2.473493364252915E+000	1.284629967547517E+001
-9.6557546E-001	2.545778717169362E+000	1.285879967515939E+001
-9.6458471E-001	2.617813284078622E+000	1.287129967484361E+001
-9.6356106E-001	2.690787137397351E+000	1.288379967452784E+001
-9.6255732E-001	2.763657226112869E+000	1.289629967421206E+001
-9.6160537E-001	2.836181954558299E+000	1.290879967389628E+001
-9.6056801E-001	2.909345439368341E+000	1.292129967358051E+001
-9.5958841E-001	2.981833144955864E+000	1.293379967326473E+001
-9.5858711E-001	3.054493543893450E+000	1.294629967294895E+001
-9.5755261E-001	3.128591739073663E+000	1.295879967263318E+001
-9.5656431E-001	3.200478465726590E+000	1.297129967231740E+001
-9.5562762E-001	3.273231674806169E+000	1.298379967200162E+001
-9.5454443E-001	3.346920753496967E+000	1.299629967168585E+001
-9.5356280E-001	3.419358875292033E+000	1.300879967137007E+001
-9.5261282E-001	3.491516202296097E+000	1.302129967105429E+001
-9.5157564E-001	3.564458634948284E+000	1.303379967073852E+001
-9.5059782E-001	3.638093339224824E+000	1.304629967042274E+001
-9.4958860E-001	3.711351716580502E+000	1.305879967010696E+001
-9.4859415E-001	3.783896588355489E+000	1.307129966979119E+001
-9.4759780E-001	3.856904350065953E+000	1.308379966947541E+001
-9.4655168E-001	3.931394201469182E+000	1.309629966915963E+001
-9.4555700E-001	4.004183743259917E+000	1.310879966884386E+001
-9.4454396E-001	4.077085866718086E+000	1.312129966852808E+001
-9.4358087E-001	4.150031576975300E+000	1.313379966821230E+001
-9.4258165E-001	4.223106024536314E+000	1.314629966789653E+001
-9.4153398E-001	4.297035238838649E+000	1.315879966758075E+001
-9.4056916E-001	4.368639470257785E+000	1.317129966726498E+001
-9.3956977E-001	4.440286963623720E+000	1.318379966694920E+001
-9.3855506E-001	4.513994772793282E+000	1.319629966663342E+001
-9.3757153E-001	4.586279874179707E+000	1.320879966631765E+001
-9.3657553E-001	4.658492693405236E+000	1.322129966600187E+001
-9.3556428E-001	4.731005055009433E+000	1.323379966568609E+001
-9.3456727E-001	4.804602725028303E+000	1.324629966537032E+001
-9.3359435E-001	4.877207274371331E+000	1.325879966505454E+001
-9.3255496E-001	4.949519023582411E+000	1.327129966473876E+001
-9.3156880E-001	5.021652777834490E+000	1.328379966442299E+001
-9.3056267E-001	5.094437616457920E+000	1.329629966410721E+001
-9.2958748E-001	5.166162147519330E+000	1.330879966379143E+001
-9.2857146E-001	5.238992106844805E+000	1.332129966347566E+001
-9.2759788E-001	5.310862622933392E+000	1.333379966315988E+001
-9.2658693E-001	5.383267366528866E+000	1.334629966284410E+001
-9.2558575E-001	5.456634845628969E+000	1.335879966252833E+001
-9.2459387E-001	5.528152213154158E+000	1.337129966221255E+001
-9.2358762E-001	5.599902853059291E+000	1.338379966189677E+001
-9.2257082E-001	5.672981621795579E+000	1.339629966158100E+001
-9.2159235E-001	5.745000430072366E+000	1.340879966126522E+001
-9.2052394E-001	5.819868806466417E+000	1.342129966094944E+001
-9.1955531E-001	5.892037713545420E+000	1.343379966063367E+001
-9.1855550E-001	5.964681414854610E+000	1.344629966031789E+001
-9.1754282E-001	6.036977267691064E+000	1.345879966000211E+001
-9.1655713E-001	6.108202517642638E+000	1.347129965968634E+001
-9.1556484E-001	6.180150464731515E+000	1.348379965937056E+001
-9.1452777E-001	6.251346566937665E+000	1.349629965905478E+001
-9.1354555E-001	6.322614355057084E+000	1.350879965873901E+001
-9.1255760E-001	6.393963287165132E+000	1.352129965842323E+001
-9.1156209E-001	6.465296929059136E+000	1.353379965810745E+001
-9.1056001E-001	6.536831277852855E+000	1.354629965779168E+001
-9.0956491E-001	6.609613127252487E+000	1.355879965747590E+001
-9.0858364E-001	6.679658555278664E+000	1.357129965716013E+001
-9.0753919E-001	6.750591003069900E+000	1.358379965684435E+001
-9.0655017E-001	6.822277456565566E+000	1.359629965652857E+001
-9.0556937E-001	6.892852572901617E+000	1.360879965621280E+001
-9.0461171E-001	6.963200085475083E+000	1.362129965589702E+001
-9.0358371E-001	7.034364898689105E+000	1.363379965558124E+001
-9.0257466E-001	7.105465567861415E+000	1.364629965526547E+001
-9.0156490E-001	7.176052414191332E+000	1.365879965494969E+001
-9.0058106E-001	7.245909525462793E+000	1.367129965463391E+001
-8.9956957E-001	7.316465686208417E+000	1.368379965431814E+001
-8.9859056E-001	7.387045432949627E+000	1.369629965400236E+001
-8.9762062E-001	7.456451132494436E+000	1.370879965368658E+001
-8.9657545E-001	7.526625155008323E+000	1.372129965337081E+001
-8.9554584E-001	7.597133776527784E+000	1.373379965305503E+001
-8.9452386E-001	7.668077843797469E+000	1.374629965273925E+001
-8.9356309E-001	7.738677751139875E+000	1.375879965242348E+001
-8.9253342E-001	7.807702285896625E+000	1.377129965210770E+001
-8.9156461E-001	7.876414214571312E+000	1.378379965179192E+001
-8.9054096E-001	7.946192945958217E+000	1.379629965147615E+001
-8.8957691E-001	8.014820074884307E+000	1.380879965116037E+001
-8.8856256E-001	8.082923593881844E+000	1.382129965084459E+001
-8.8757277E-001	8.151241267587810E+000	1.383379965052882E+001
-8.8655967E-001	8.220686280892977E+000	1.384629965021304E+001
-8.8551855E-001	8.289307319559157E+000	1.385879964989726E+001
-8.8453001E-001	8.357427776600559E+000	1.387129964958149E+001
-8.8356584E-001	8.425256507471190E+000	1.388379964926571E+001
-8.8252848E-001	8.493253056461015E+000	1.389629964894993E+001
-8.8156152E-001	8.560795747098492E+000	1.390879964863416E+001
-8.8053334E-001	8.628022074002260E+000	1.392129964831838E+001
-8.7952244E-001	8.694858486010247E+000	1.393379964800261E+001
-8.7854487E-001	8.762198189153651E+000	1.394629964768683E+001
-8.7751383E-001	8.829707842231500E+000	1.395879964737105E+001
-8.7650943E-001	8.895070985046743E+000	1.397129964705528E+001
-8.7554342E-001	8.960654494840497E+000	1.398379964673950E+001
-8.7452883E-001	9.027167341426871E+000	1.399629964642372E+001
-8.7354070E-001	9.092845037136073E+000	1.400879964610795E+001
-8.7255037E-001	9.157300752810897E+000	1.402129964579217E+001
-8.7149984E-001	9.222400519686417E+000	1.403379964547639E+001
-8.7052226E-001	9.287048338449495E+000	1.404629964516062E+001
-8.6957616E-001	9.351809607774371E+000	1.405879964484484E+001
-8.6857200E-001	9.415218318676406E+000	1.407129964452906E+001
-8.6758435E-001	9.478666494822235E+000	1.408379964421329E+001
-8.6655760E-001	9.542571164841902E+000	1.409629964389751E+001
-8.6556900E-001	9.605068315485802E+000	1.410879964358173E+001
-8.6456543E-001	9.667347796784149E+000	1.412129964326596E+001
-8.6357820E-001	9.728648966000918E+000	1.413379964295018E+001
-8.6259943E-001	9.789461130287222E+000	1.414629964263440E+001
-8.6154920E-001	9.851293439799491E+000	1.415879964231863E+001
-8.6060810E-001	9.910858959090262E+000	1.417129964200285E+001
-8.5960519E-001	9.970585009570996E+000	1.418379964168707E+001
-8.5854119E-001	1.003166317909265E+001	1.419629964137130E+001
-8.5759187E-001	1.009048539568629E+001	1.420879964105552E+001
-8.5657066E-001	1.014847847841116E+001	1.422129964073974E+001
-8.5558861E-001	1.020647596461433E+001	1.423379964042397E+001
-8.5460198E-001	1.026357742778041E+001	1.424629964010819E+001
-8.5362136E-001	1.032058315391519E+001	1.425879963979241E+001
-8.5258114E-001	1.037626528657145E+001	1.427129963947664E+001
-8.5159117E-001	1.043157202626273E+001	1.428379963916086E+001
-8.5058236E-001	1.048696109260382E+001	1.429629963884508E+001
-8.4961247E-001	1.054096244484013E+001	1.430879963852931E+001
-8.4860390E-001	1.059376225136873E+001	1.432129963821353E+001
-8.4762597E-001	1.064550393451716E+001	1.433379963789776E+001
-8.4656847E-001	1.069667238602695E+001	1.434629963758198E+001
-8.4558463E-001	1.074848179674398E+001	1.435879963726620E+001
-8.4457761E-001	1.079874914457579E+001	1.437129963695043E+001
-8.4359449E-001	1.084772419157844E+001	1.438379963663465E+001
-8.4254509E-001	1.089675072114375E+001	1.439629963631887E+001
-8.4155309E-001	1.094311982677098E+001	1.440879963600310E+001
-8.3934319E-001	1.105900210870158E+001	1.443629963530839E+001
-8.3715183E-001	1.117980294594811E+001	1.446379963461368E+001
-8.3617818E-001	1.121967081459826E+001	1.447629963429790E+001
-8.3517307E-001	1.125904983827576E+001	1.448879963398213E+001
-8.3416581E-001	1.129805922817589E+001	1.450129963366635E+001
-8.3316183E-001	1.133498155760265E+001	1.451379963335057E+001
-8.3219433E-001	1.136966604713284E+001	1.452629963303480E+001
-8.3116925E-001	1.140076405523962E+001	1.453879963271902E+001
-8.3013803E-001	1.143004677087416E+001	1.455129963240324E+001
-8.2918143E-001	1.146043169236793E+001	1.456379963208747E+001
-8.2818401E-001	1.148857258517324E+001	1.457629963177169E+001
-8.2722765E-001	1.151422168008457E+001	1.458879963145591E+001
-8.2618052E-001	1.153654455694192E+001	1.460129963114014E+001
-8.2513142E-001	1.155727890129427E+001	1.461379963082436E+001
-8.2416791E-001	1.157808857188931E+001	1.462629963050858E+001
-8.2316607E-001	1.159343581620072E+001	1.463879963019281E+001
-8.2217729E-001	1.160640934946250E+001	1.465129962987703E+001
-8.2119840E-001	1.161406459206987E+001	1.466379962956125E+001
-8.2018095E-001	1.161939223803449E+001	1.467629962924548E+001
-8.1915092E-001	1.162299761180537E+001	1.468879962892970E+001
-8.1809795E-001	1.162269121970527E+001	1.470129962861392E+001
-8.1712538E-001	1.162044944911304E+001	1.471379962829815E+001
-8.1615591E-001	1.161800403313509E+001	1.472629962798237E+001
-8.1511837E-001	1.160710126871155E+001	1.473879962766659E+001
-8.1412375E-001	1.159062287681985E+001	1.475129962735082E+001
-8.1312984E-001	1.156931445166651E+001	1.476379962703504E+001
-8.1214392E-001	1.154179424853521E+001	1.477629962671926E+001
-8.1114596E-001	1.151128033424419E+001	1.478879962640349E+001
-8.1012243E-001	1.148095373125284E+001	1.480129962608771E+001
-8.0913222E-001	1.144763948688550E+001	1.481379962577194E+001
-8.0815446E-001	1.140585213572835E+001	1.482629962545616E+001
-8.0711889E-001	1.136034741629624E+001	1.483879962514038E+001
-8.0615222E-001	1.130473096612076E+001	1.485129962482461E+001
-8.0513477E-001	1.124864766853200E+001	1.486379962450883E+001
-8.0414337E-001	1.117178599126854E+001	1.487629962419305E+001
-8.0312920E-001	1.108531308537798E+001	1.488879962387728E+001
-8.0217940E-001	1.100004228326480E+001	1.490129962356150E+001
-8.0112475E-001	1.088843318851045E+001	1.491379962324572E+001
-8.0012751E-001	1.076897899030942E+001	1.492629962292995E+001
-7.9917014E-001	1.064845340907394E+001	1.493879962261417E+001
-7.9818588E-001	1.051822167390969E+001	1.495129962229839E+001
-7.9716933E-001	1.036706621816293E+001	1.496379962198262E+001
-7.9619604E-001	1.020990540104653E+001	1.497629962166684E+001
-7.9517919E-001	1.003556547730808E+001	1.498879962135106E+001
-7.9417413E-001	9.843046411392677E+000	1.500129962103529E+001
-7.9316747E-001	9.631362985420445E+000	1.501379962071951E+001
-7.9219079E-001	9.390092861713381E+000	1.502629962040373E+001
-7.9117256E-001	9.118473376502266E+000	1.503879962008796E+001
-7.9017460E-001	8.832540478622718E+000	1.505129961977218E+001
-7.8914928E-001	8.535827351778380E+000	1.506379961945640E+001
-7.8817850E-001	8.220249969621150E+000	1.507629961914063E+001
-7.8716630E-001	7.877582678039161E+000	1.508879961882485E+001
-7.8620040E-001	7.548854336534691E+000	1.510129961850907E+001
-7.8517985E-001	7.233648938392918E+000	1.511379961819330E+001
-7.8415197E-001	6.927584441607479E+000	1.512629961787752E+001
-7.8314984E-001	6.626574406178577E+000	1.513879961756174E+001
-7.8217429E-001	6.358845181349249E+000	1.515129961724597E+001
-7.8119785E-001	6.122796848992877E+000	1.516379961693019E+001
-7.8018594E-001	5.893990635588693E+000	1.517629961661441E+001
-7.7916151E-001	5.702801877943202E+000	1.518879961629864E+001
-7.7817082E-001	5.534156515475388E+000	1.520129961598286E+001
-7.7715462E-001	5.347974850153122E+000	1.521379961566709E+001
-7.7617919E-001	5.164676227198377E+000	1.522629961535131E+001
-7.7517074E-001	5.013566344843369E+000	1.523879961503553E+001
-7.7414697E-001	4.866816949142876E+000	1.525129961471976E+001
-7.7316499E-001	4.731077618542191E+000	1.526379961440398E+001
-7.7215648E-001	4.597383595894158E+000	1.527629961408820E+001
-7.7118152E-001	4.474404861374460E+000	1.528879961377243E+001
-7.7020562E-001	4.373881200470066E+000	1.530129961345665E+001
-7.6913220E-001	4.265696111312586E+000	1.531379961314087E+001
-7.6817316E-001	4.161792389678169E+000	1.532629961282510E+001
-7.6716459E-001	4.057733907741259E+000	1.533879961250932E+001
-7.6494914E-001	3.829801231448734E+000	1.536629961181461E+001
-7.6277030E-001	3.613748987804037E+000	1.539379961111990E+001
-7.6175618E-001	3.553941951857681E+000	1.540629961080413E+001
-7.6078254E-001	3.466417799748132E+000	1.541879961048835E+001
-7.5976831E-001	3.389234105179536E+000	1.543129961017257E+001
-7.5874418E-001	3.351223546967283E+000	1.544379960985680E+001
-7.5775093E-001	3.295848044953502E+000	1.545629960954102E+001
-7.5674677E-001	3.182034062909068E+000	1.546879960922524E+001
-7.5580859E-001	3.109999855991170E+000	1.548129960890947E+001
-7.5479132E-001	3.030136477246529E+000	1.549379960859369E+001
-7.5377476E-001	2.977254196838079E+000	1.550629960827791E+001
-7.5275260E-001	2.912941801062374E+000	1.551879960796214E+001
-7.5176996E-001	2.855196614373924E+000	1.553129960764636E+001
-7.5077581E-001	2.807169085745471E+000	1.554379960733058E+001
-7.4972624E-001	2.756349960342042E+000	1.555629960701481E+001
-7.4877340E-001	2.701332597283740E+000	1.556879960669903E+001
-7.4778742E-001	2.642126522217577E+000	1.558129960638325E+001
-7.4680495E-001	2.575729204563515E+000	1.559379960606748E+001
-7.4579620E-001	2.532926062535909E+000	1.560629960575170E+001
-7.4476063E-001	2.483328645494552E+000	1.561879960543592E+001
-7.4372792E-001	2.447064836406039E+000	1.563129960512015E+001
-7.4276692E-001	2.404097048587925E+000	1.564379960480437E+001
-7.4177492E-001	2.348782990759576E+000	1.565629960448859E+001
-7.4078286E-001	2.308244164290265E+000	1.566879960417282E+001
-7.3973280E-001	2.276605597713545E+000	1.568129960385704E+001
-7.3875916E-001	2.233789511368663E+000	1.569379960354127E+001
-7.3777807E-001	2.187432547824262E+000	1.570629960322549E+001
-7.3678893E-001	2.160754687441080E+000	1.571879960290971E+001
-7.3581791E-001	2.123368671763018E+000	1.573129960259394E+001
-7.3476958E-001	2.078582794815762E+000	1.574379960227816E+001
-7.3378277E-001	2.026603743063614E+000	1.575629960196238E+001
-7.3277110E-001	1.989098833685382E+000	1.576879960164661E+001
-7.3179471E-001	1.944908467301154E+000	1.578129960133083E+001
-7.3076373E-001	1.926807700456784E+000	1.579379960101505E+001
-7.2974527E-001	1.902267006122408E+000	1.580629960069928E+001
-7.2875637E-001	1.900508776695169E+000	1.581879960038350E+001
-7.2778213E-001	1.854608639606344E+000	1.583129960006772E+001
-7.2681344E-001	1.819792323779041E+000	1.584379959975195E+001
-7.2574311E-001	1.792652785385915E+000	1.585629959943617E+001
-7.2479326E-001	1.776675959993602E+000	1.586879959912039E+001
-7.2372556E-001	1.762338520174749E+000	1.588129959880462E+001
-7.2278291E-001	1.747657645316361E+000	1.589379959848884E+001
-7.2179681E-001	1.719336693474684E+000	1.590629959817306E+001
-7.2077250E-001	1.695363688404619E+000	1.591879959785729E+001
-7.1976775E-001	1.664257470060868E+000	1.593129959754151E+001
-7.1878129E-001	1.640907340893691E+000	1.594379959722573E+001
-7.1777034E-001	1.626867229402166E+000	1.595629959690996E+001
-7.1677697E-001	1.598427213096457E+000	1.596879959659418E+001
-7.1574968E-001	1.577710488005078E+000	1.598129959627840E+001
-7.1471125E-001	1.569651930498708E+000	1.599379959596263E+001
-7.1373606E-001	1.547718475300446E+000	1.600629959564685E+001
-7.1274996E-001	1.536875369825539E+000	1.601879959533107E+001
-7.1175486E-001	1.531286121215346E+000	1.603129959501530E+001
-7.1072626E-001	1.517950281644956E+000	1.604379959469952E+001
-7.0977461E-001	1.491002283462088E+000	1.605629959438375E+001
-7.0873749E-001	1.472077769887022E+000	1.606879959406797E+001
-7.0776916E-001	1.463063571329792E+000	1.608129959375219E+001
-7.0674396E-001	1.452359529372885E+000	1.609379959343642E+001
-7.0572424E-001	1.450917936278758E+000	1.610629959312064E+001
-7.0473951E-001	1.438543719450180E+000	1.611879959280486E+001
-7.0378220E-001	1.423358563371877E+000	1.613129959248909E+001
-7.0274448E-001	1.417384363250763E+000	1.614379959217331E+001
-7.0176613E-001	1.393100565838580E+000	1.615629959185753E+001
-7.0075274E-001	1.383561509489528E+000	1.616879959154176E+001
-6.9973606E-001	1.364896039761689E+000	1.618129959122598E+001
-6.9876033E-001	1.360699995892078E+000	1.619379959091020E+001
-6.9778305E-001	1.350565417364724E+000	1.620629959059443E+001
-6.9673473E-001	1.330176751805652E+000	1.621879959027865E+001
-6.9574380E-001	1.336103716538407E+000	1.623129958996287E+001
-6.9476283E-001	1.315768634346092E+000	1.624379958964710E+001
-6.9372106E-001	1.305277916842428E+000	1.625629958933132E+001
-6.9278979E-001	1.296602935485900E+000	1.626879958901554E+001
-6.9173992E-001	1.289644487420019E+000	1.628129958869977E+001
-6.9069028E-001	1.264232749773547E+000	1.629379958838399E+001
-6.8970257E-001	1.240199215889898E+000	1.630629958806821E+001
-6.8872100E-001	1.231074251761175E+000	1.631879958775244E+001
-6.8775463E-001	1.218607056177937E+000	1.633129958743666E+001
-6.8673819E-001	1.205334653207549E+000	1.634379958712088E+001
-6.8571353E-001	1.195120698837731E+000	1.635629958680511E+001
-6.8469590E-001	1.207530617037614E+000	1.636879958648933E+001
-6.8371660E-001	1.195403778522504E+000	1.638129958617355E+001
-6.8271208E-001	1.193737114824003E+000	1.639379958585778E+001
-6.8175375E-001	1.182992612403872E+000	1.640629958554200E+001
-6.8073726E-001	1.168707820631212E+000	1.641879958522622E+001
-6.7972529E-001	1.161706464468608E+000	1.643129958491045E+001
-6.7873335E-001	1.146378067061532E+000	1.644379958459467E+001
-6.7770010E-001	1.144458746352392E+000	1.645629958427890E+001
-6.7673910E-001	1.086699283437895E+000	1.646879958396312E+001
-6.7577797E-001	1.077211830454573E+000	1.648129958364734E+001
-6.7476404E-001	1.078100314452537E+000	1.649379958333157E+001
-6.7374718E-001	1.057464237902206E+000	1.650629958301579E+001
-6.7277646E-001	1.039855009776411E+000	1.651879958270001E+001
-6.7177022E-001	1.020940341616370E+000	1.653129958238424E+001
-6.7079455E-001	1.022360106907966E+000	1.654379958206846E+001
-6.6979814E-001	1.015946349940581E+000	1.655629958175268E+001
-6.6880268E-001	1.015657297235784E+000	1.656879958143691E+001
-6.6780204E-001	1.012132268409893E+000	1.658129958112113E+001
-6.6677934E-001	1.005341428442907E+000	1.659379958080535E+001
-6.6575891E-001	9.948971700958040E-001	1.660629958048958E+001
-6.6475976E-001	9.874964600118563E-001	1.661879958017380E+001
-6.6376656E-001	9.833377325765742E-001	1.663129957985802E+001
-6.6274559E-001	9.580154216493568E-001	1.664379957954225E+001
-6.6177225E-001	9.464431653038936E-001	1.665629957922647E+001
-6.6077644E-001	9.346205512161525E-001	1.666879957891069E+001
-6.5976238E-001	9.253720841887976E-001	1.668129957859492E+001
-6.5876073E-001	9.118289430570279E-001	1.669379957827914E+001
-6.5777344E-001	9.076629473081663E-001	1.670629957796336E+001
-6.5676469E-001	9.097316027175495E-001	1.671879957764759E+001
-6.5576833E-001	9.099353230531086E-001	1.673129957733181E+001
-6.5477878E-001	8.935434610494220E-001	1.674379957701603E+001
-6.5376371E-001	8.873294524096917E-001	1.675629957670026E+001
-6.5278041E-001	8.768493149407366E-001	1.676879957638448E+001
-6.5176105E-001	8.659904996227290E-001	1.678129957606870E+001
-6.5073872E-001	8.760647208906642E-001	1.679379957575293E+001
-6.4977294E-001	8.760552813914479E-001	1.680629957543715E+001
-6.4878988E-001	8.585563994933016E-001	1.681879957512137E+001
-6.4775127E-001	8.402477714903043E-001	1.683129957480560E+001
-6.4678979E-001	8.307932580688151E-001	1.684379957448982E+001
-6.4579642E-001	8.387417355280000E-001	1.685629957417405E+001
-6.4475060E-001	8.471523836210793E-001	1.686879957385827E+001
-6.4378208E-001	8.428122507713267E-001	1.688129957354249E+001
-6.4275396E-001	8.294844298645696E-001	1.689379957322672E+001
-6.4179063E-001	8.287334515500779E-001	1.690629957291094E+001
-6.4074546E-001	8.162121220181380E-001	1.691879957259516E+001
-6.3976461E-001	7.942121778996061E-001	1.693129957227939E+001
-6.3877475E-001	7.908594441389472E-001	1.694379957196361E+001
-6.3770723E-001	7.904916735208047E-001	1.695629957164783E+001
-6.3676131E-001	7.919606367164960E-001	1.696879957133206E+001
-6.3573533E-001	7.831417728427841E-001	1.698129957101628E+001
-6.3475257E-001	7.844002560984080E-001	1.699379957070050E+001
-6.3377357E-001	7.760854328230935E-001	1.700629957038473E+001
-6.3272119E-001	7.696421770988768E-001	1.701879957006895E+001
-6.3171303E-001	7.621387904673314E-001	1.703129956975317E+001
-6.3070804E-001	7.646597709140899E-001	1.704379956943740E+001
-6.2975866E-001	7.648462844380717E-001	1.705629956912162E+001
-6.2873024E-001	7.695900250747370E-001	1.706879956880584E+001
-6.2775964E-001	7.686934590513950E-001	1.708129956849007E+001
-6.2671703E-001	7.703519570668957E-001	1.709379956817429E+001
-6.2574297E-001	7.602303985626087E-001	1.710629956785851E+001
-6.2475061E-001	7.649351810077425E-001	1.711879956754274E+001
-6.2375438E-001	7.731746406408799E-001	1.713129956722696E+001
-6.2271911E-001	7.658651258458278E-001	1.714379956691118E+001
-6.2177241E-001	7.448649826998768E-001	1.715629956659541E+001
-6.2073445E-001	7.443014581083514E-001	1.716879956627963E+001
-6.1972308E-001	7.339746289265645E-001	1.718129956596385E+001
-6.1872935E-001	7.283988378725859E-001	1.719379956564808E+001
-6.1778480E-001	7.327197451656424E-001	1.720629956533230E+001
-6.1673534E-001	7.173944472035938E-001	1.721879956501652E+001
-6.1579788E-001	7.301118294926283E-001	1.723129956470075E+001
-6.1474532E-001	7.154423178456337E-001	1.724379956438497E+001
-6.1374259E-001	7.077351400182117E-001	1.725629956406920E+001
-6.1274391E-001	7.026055171930530E-001	1.726879956375342E+001
-6.1178333E-001	7.036474690424086E-001	1.728129956343764E+001
-6.1074519E-001	6.902514550324881E-001	1.729379956312187E+001
-6.0977173E-001	6.810894541916235E-001	1.730629956280609E+001
-6.0877448E-001	7.063390369709985E-001	1.731879956249031E+001
-6.0775971E-001	7.027120030245460E-001	1.733129956217454E+001
-6.0678828E-001	6.983107053951940E-001	1.734379956185876E+001
-6.0575962E-001	6.959828091649154E-001	1.735629956154298E+001
-6.0478389E-001	7.005070885033575E-001	1.736879956122721E+001
-6.0375959E-001	6.993678772130350E-001	1.738129956091143E+001
-6.0280430E-001	6.988789222447114E-001	1.739379956059565E+001
-6.0176432E-001	7.000785274648962E-001	1.740629956027988E+001
-6.0083228E-001	6.976177484528829E-001	1.741879955996410E+001
-5.9978873E-001	7.011146246651752E-001	1.743129955964832E+001
-5.9877706E-001	6.939482855987524E-001	1.744379955933255E+001
-5.9781390E-001	6.893133275641148E-001	1.745629955901677E+001
-5.9679186E-001	6.879922614759950E-001	1.746879955870099E+001
-5.9577060E-001	6.886134533870596E-001	1.748129955838522E+001
-5.9480327E-001	6.917175687295192E-001	1.749379955806944E+001
-5.9377605E-001	6.904236971079367E-001	1.750629955775366E+001
-5.9279269E-001	6.959949274120572E-001	1.751879955743789E+001
-5.9179425E-001	6.814106838908387E-001	1.753129955712211E+001
-5.9081554E-001	6.880290915058662E-001	1.754379955680633E+001
-5.8983463E-001	6.946781654651559E-001	1.755629955649056E+001
-5.8876204E-001	6.839187749262396E-001	1.756879955617478E+001
-5.8776104E-001	6.720673855481270E-001	1.758129955585900E+001
-5.8676475E-001	6.634940312748441E-001	1.759379955554323E+001
-5.8574718E-001	6.583375260506195E-001	1.760629955522745E+001
-5.8474123E-001	6.664901381258751E-001	1.761879955491167E+001
-5.8376372E-001	6.722705249037428E-001	1.763129955459590E+001
-5.8275777E-001	6.656821938675102E-001	1.764379955428012E+001
-5.8178520E-001	6.499786970031336E-001	1.765629955396435E+001
-5.8078283E-001	6.601340173954353E-001	1.766879955364857E+001
-5.7978433E-001	6.690719054810366E-001	1.768129955333279E+001
-5.7881802E-001	6.623240569162965E-001	1.769379955301702E+001
-5.7779950E-001	6.566588845871906E-001	1.770629955270124E+001
-5.7680482E-001	6.550195098111766E-001	1.771879955238546E+001
-5.7581949E-001	6.629919006777882E-001	1.773129955206969E+001
-5.7476896E-001	6.629346720153668E-001	1.774379955175391E+001
-5.7378805E-001	6.668497190309681E-001	1.775629955143813E+001
-5.7277906E-001	6.622836394873008E-001	1.776879955112236E+001
-5.7180935E-001	6.661104992473206E-001	1.778129955080658E+001
-5.7077140E-001	6.695557959527472E-001	1.779379955049080E+001
-5.6978154E-001	6.666575080813163E-001	1.780629955017503E+001
-5.6877655E-001	6.619740748678213E-001	1.781879954985925E+001
-5.6778276E-001	6.679489436227151E-001	1.783129954954347E+001
-5.6677121E-001	6.587927486370582E-001	1.784379954922770E+001
-5.6577617E-001	6.551915236574466E-001	1.785629954891192E+001
-5.6476271E-001	6.464197620738414E-001	1.786879954859614E+001
-5.6376857E-001	6.395433078716071E-001	1.788129954828037E+001
-5.6275940E-001	6.460870053962839E-001	1.789379954796459E+001
-5.6174934E-001	6.518523507664362E-001	1.790629954764881E+001
-5.6073195E-001	6.450142797077141E-001	1.791879954733304E+001
-5.5974358E-001	6.438287372308729E-001	1.793129954701726E+001
-5.5873573E-001	6.358185384417006E-001	1.794379954670148E+001
-5.5779624E-001	6.384780862020056E-001	1.795629954638571E+001
-5.5676007E-001	6.222888697659412E-001	1.796879954606993E+001
-5.5576754E-001	6.191497579113490E-001	1.798129954575415E+001
-5.5476570E-001	6.194952117013104E-001	1.799379954543838E+001
-5.5375057E-001	6.090856223062182E-001	1.800629954512260E+001
-5.5277306E-001	6.077342598554907E-001	1.801879954480683E+001
-5.5179870E-001	6.045300187788101E-001	1.803129954449105E+001
-5.5079949E-001	6.047104705108470E-001	1.804379954417527E+001
-5.4979545E-001	6.069532126346244E-001	1.805629954385950E+001
-5.4884362E-001	6.201835346180906E-001	1.806879954354372E+001
-5.4776698E-001	6.196420087114172E-001	1.808129954322794E+001
-5.4682827E-001	6.218123523590533E-001	1.809379954291217E+001
-5.4583812E-001	6.198031282030632E-001	1.810629954259639E+001
-5.4480696E-001	6.214247242148438E-001	1.811879954228061E+001
-5.4379749E-001	6.169338897987142E-001	1.813129954196484E+001
-5.4282057E-001	6.227128371080779E-001	1.814379954164906E+001
-5.4178286E-001	6.090686513459591E-001	1.815629954133328E+001
-5.4081887E-001	6.148808771450565E-001	1.816879954101751E+001
-5.3984690E-001	6.250279503438780E-001	1.818129954070173E+001
-5.3881228E-001	6.141303074684750E-001	1.819379954038595E+001
-5.3783840E-001	5.977474890611187E-001	1.820629954007018E+001
-5.3679043E-001	6.079435761507934E-001	1.821879953975440E+001
-5.3579062E-001	6.061000650754060E-001	1.823129953943862E+001
-5.3479499E-001	6.075008974903957E-001	1.824379953912285E+001
-5.3378862E-001	6.032833486267128E-001	1.825629953880707E+001
-5.3275514E-001	6.075214279172512E-001	1.826879953849129E+001
-5.3178602E-001	5.916018540377355E-001	1.828129953817552E+001
-5.3079206E-001	5.938362526385856E-001	1.829379953785974E+001
-5.2978551E-001	5.921229139918051E-001	1.830629953754396E+001
-5.2880359E-001	5.896409951826769E-001	1.831879953722819E+001
-5.2775532E-001	6.005724070713535E-001	1.833129953691241E+001
-5.2678084E-001	5.737768226813138E-001	1.834379953659663E+001
-5.2579701E-001	5.730157526950661E-001	1.835629953628086E+001
-5.2479500E-001	5.632497167292385E-001	1.836879953596508E+001
-5.2376193E-001	5.783026867780352E-001	1.838129953564930E+001
-5.2278763E-001	5.845019677210441E-001	1.839379953533353E+001
-5.2182114E-001	5.783199122398903E-001	1.840629953501775E+001
-5.2079874E-001	5.762062587725412E-001	1.841879953470198E+001
-5.1977837E-001	5.797041134162679E-001	1.843129953438620E+001
-5.1877397E-001	5.752493532296885E-001	1.844379953407042E+001
-5.1780540E-001	5.653171008779569E-001	1.845629953375465E+001
-5.1684582E-001	5.672752714405451E-001	1.846879953343887E+001
-5.1583725E-001	5.738932685872093E-001	1.848129953312309E+001
-5.1483506E-001	5.647819438877146E-001	1.849379953280732E+001
-5.1379263E-001	5.640323307768229E-001	1.850629953249154E+001
-5.1283789E-001	5.456315281834185E-001	1.851879953217576E+001
-5.1178825E-001	5.486154493369297E-001	1.853129953185999E+001
-5.1075709E-001	5.351974217309845E-001	1.854379953154421E+001
-5.0977010E-001	5.273190905443528E-001	1.855629953122843E+001
-5.0875574E-001	5.225167096553687E-001	1.856879953091266E+001
-5.0776678E-001	5.292530658992558E-001	1.858129953059688E+001
-5.0673515E-001	5.136009970946001E-001	1.859379953028110E+001
-5.0572884E-001	5.088352958551940E-001	1.860629952996533E+001
-5.0477535E-001	5.094849912898738E-001	1.861879952964955E+001
-5.0375676E-001	5.217186344095825E-001	1.863129952933377E+001
-5.0274670E-001	5.232666913929975E-001	1.864379952901800E+001
-5.0178027E-001	5.139076572772083E-001	1.865629952870222E+001
-5.0075489E-001	5.135693145622096E-001	1.866879952838644E+001
-4.9972716E-001	5.082277145634331E-001	1.868129952807067E+001
-4.9876720E-001	5.104973322928112E-001	1.869379952775489E+001
-4.9776217E-001	5.037615242583020E-001	1.870629952743911E+001
-4.9675366E-001	5.227256277132621E-001	1.871879952712334E+001
-4.9574581E-001	5.358344217495468E-001	1.873129952680756E+001
-4.9472845E-001	5.273512706847967E-001	1.874379952649178E+001
-4.9375293E-001	5.367318270156121E-001	1.875629952617601E+001
-4.9271804E-001	5.319670461633785E-001	1.876879952586023E+001
-4.9176574E-001	5.467861959280458E-001	1.878129952554445E+001
-4.9077669E-001	5.470405912464722E-001	1.879379952522868E+001
-4.8978072E-001	5.611500758350960E-001	1.880629952491290E+001
-4.8875776E-001	5.608125182860997E-001	1.881879952459713E+001
-4.8775318E-001	5.475883522228902E-001	1.883129952428135E+001
-4.8673788E-001	5.319349299395650E-001	1.884379952396557E+001
-4.8570117E-001	5.317023902619518E-001	1.885629952364980E+001
-4.8474771E-001	5.426189232440226E-001	1.886879952333402E+001
-4.8373044E-001	5.337445190072887E-001	1.888129952301824E+001
-4.8275268E-001	5.278692908745861E-001	1.889379952270247E+001
-4.8173565E-001	5.285567721591633E-001	1.890629952238669E+001
-4.8074123E-001	5.311570789116193E-001	1.891879952207091E+001
-4.7976887E-001	5.444795039988968E-001	1.893129952175514E+001
-4.7876164E-001	5.394526041872307E-001	1.894379952143936E+001
-4.7774285E-001	5.443436100980961E-001	1.895629952112358E+001
-4.7677997E-001	5.453327132826917E-001	1.896879952080781E+001
-4.7570688E-001	5.407773845377026E-001	1.898129952049203E+001
-4.7479305E-001	5.293359890735418E-001	1.899379952017625E+001
-4.7377872E-001	5.237059141454790E-001	1.900629951986048E+001
-4.7277752E-001	5.305570464919418E-001	1.901879951954470E+001
-4.7175330E-001	5.194764064069384E-001	1.903129951922892E+001
-4.7074240E-001	5.198904761789542E-001	1.904379951891315E+001
-4.6975589E-001	5.057046273832162E-001	1.905629951859737E+001
-4.6878123E-001	5.068039494051124E-001	1.906879951828159E+001
-4.6771410E-001	4.997642261863877E-001	1.908129951796582E+001
-4.6677324E-001	4.851898642983041E-001	1.909379951765004E+001
-4.6578005E-001	4.906450971247551E-001	1.910629951733426E+001
-4.6472174E-001	4.997518513368302E-001	1.911879951701849E+001
-4.6377105E-001	5.047767300605353E-001	1.913129951670271E+001
-4.6277377E-001	5.209403712291367E-001	1.914379951638693E+001
-4.6176344E-001	5.329309817790291E-001	1.915629951607116E+001
-4.6077737E-001	5.294726520771216E-001	1.916879951575538E+001
-4.5977661E-001	5.221465722690395E-001	1.918129951543960E+001
-4.5879781E-001	5.275957440164678E-001	1.919379951512383E+001
-4.5774233E-001	5.273751628677772E-001	1.920629951480805E+001
-4.5676795E-001	4.956672875643049E-001	1.921879951449228E+001
-4.5576185E-001	4.902372385582179E-001	1.923129951417650E+001
-4.5477882E-001	4.870088021853007E-001	1.924379951386072E+001
-4.5379210E-001	4.971860625416220E-001	1.925629951354495E+001
-4.5278776E-001	5.071975006943663E-001	1.926879951322917E+001
-4.5178279E-001	5.084143271996566E-001	1.928129951291339E+001
-4.5076388E-001	4.951926564071565E-001	1.929379951259762E+001
-4.4974738E-001	4.913919045813175E-001	1.930629951228184E+001
-4.4874561E-001	4.925962546646296E-001	1.931879951196606E+001
-4.4780299E-001	4.959484740236650E-001	1.933129951165029E+001
-4.4677457E-001	4.985793225461670E-001	1.934379951133451E+001
-4.4577426E-001	5.144266929553698E-001	1.935629951101873E+001
-4.4476914E-001	5.071620148928115E-001	1.936879951070296E+001
-4.4376922E-001	5.050860194500268E-001	1.938129951038718E+001
-4.4271898E-001	5.143213821297872E-001	1.939379951007140E+001
-4.4174260E-001	5.150135908008995E-001	1.940629950975563E+001
-4.4077182E-001	5.088837252475225E-001	1.941879950943985E+001
-4.3977752E-001	5.172666449110688E-001	1.943129950912407E+001
-4.3880066E-001	5.090607814684809E-001	1.944379950880830E+001
-4.3773910E-001	5.085417807336423E-001	1.945629950849252E+001
-4.3674985E-001	5.067763925125331E-001	1.946879950817674E+001
-4.3575293E-001	5.120632696041736E-001	1.948129950786097E+001
-4.3473738E-001	4.936506905443316E-001	1.949379950754519E+001
-4.3374664E-001	4.994164284792522E-001	1.950629950722941E+001
-4.3273929E-001	4.984922887690884E-001	1.951879950691364E+001
-4.3171623E-001	5.044866363185729E-001	1.953129950659786E+001
-4.3077150E-001	5.204945241040109E-001	1.954379950628208E+001
-4.2973256E-001	5.171790880053067E-001	1.955629950596631E+001
-4.2873621E-001	5.141907286431109E-001	1.956879950565053E+001
-4.2772952E-001	4.994308466870585E-001	1.958129950533475E+001
-4.2671865E-001	4.887053822222649E-001	1.959379950501898E+001
-4.2574781E-001	4.969965897620350E-001	1.960629950470320E+001
-4.2476976E-001	4.977799321391796E-001	1.961879950438743E+001
-4.2376840E-001	4.943489328531250E-001	1.963139950406912E+001
-4.2276961E-001	4.769375165286931E-001	1.964379950375587E+001
-4.2176959E-001	4.802403894580145E-001	1.965639950343757E+001
-4.2077932E-001	4.760880602268678E-001	1.966879950312432E+001
-4.1974810E-001	4.845162345445732E-001	1.968139950280602E+001
-4.1878167E-001	4.802463682800815E-001	1.969379950249277E+001
-4.1778290E-001	4.986704588823378E-001	1.970639950217446E+001
-4.1678345E-001	4.965027401063011E-001	1.971879950186121E+001
-4.1575953E-001	4.898483759856651E-001	1.973139950154291E+001
-4.1476122E-001	5.012255387984990E-001	1.974379950122966E+001
-4.1377589E-001	5.101548632318611E-001	1.975639950091136E+001
-4.1277471E-001	5.043421449400283E-001	1.976879950059811E+001
-4.1177025E-001	5.147341380694082E-001	1.978139950027980E+001
-4.1078565E-001	5.207144138347832E-001	1.979379949996655E+001
-4.0979621E-001	4.984056924780220E-001	1.980639949964825E+001
-4.0872905E-001	5.147285597825757E-001	1.981879949933500E+001
-4.0776563E-001	5.133711573102371E-001	1.983139949901670E+001
-4.0675938E-001	5.023914720846481E-001	1.984379949870345E+001
-4.0579057E-001	4.930493101100666E-001	1.985639949838514E+001
-4.0477690E-001	5.023571375751930E-001	1.986879949807189E+001
-4.0371433E-001	5.155013788663343E-001	1.988139949775359E+001
-4.0276155E-001	5.022834023000637E-001	1.989379949744034E+001
-4.0187630E-001	4.933117740361626E-001	1.990509949715488E+001
-4.0148017E-001	4.957075417041779E-001	1.991059949701594E+001