Ewe/V	<I>/mA	time/s	
-4.0667349E-001	1.280147433280945E+000	0.000000000000000E+000
-4.0725365E-001	1.200478696024259E+000	9.299999765062239E-003
-4.0825313E-001	1.105316189378502E+000	2.589999934571097E-002
-4.0925691E-001	9.838681064132206E-001	4.249999892635969E-002
-4.1028044E-001	8.965151101640512E-001	5.929999850195600E-002
-4.1126218E-001	8.557219267636551E-001	7.589999808260472E-002
-4.1227385E-001	8.128584241577332E-001	9.249999766325345E-002
-4.1328144E-001	7.934722642724701E-001	1.092999972388498E-001
-4.1426909E-001	7.852506672797956E-001	1.258999968194985E-001
-4.1529006E-001	7.422773196962162E-001	1.424999964001472E-001
-4.1625121E-001	7.181162079796195E-001	1.592999959757435E-001
-4.1727027E-001	6.585104724930400E-001	1.758999955563922E-001
-4.1827497E-001	6.117212885080141E-001	1.924999951370410E-001
-4.1929910E-001	5.734319664703453E-001	2.092999947126373E-001
-4.2026663E-001	5.736121226060682E-001	2.258999942932860E-001
-4.2122996E-001	5.599487532178546E-001	2.424999938739347E-001
-4.2227104E-001	5.397158765999794E-001	2.592999934495310E-001
-4.2316520E-001	5.158246637073631E-001	2.758999930301798E-001
-4.2425644E-001	5.042144596783649E-001	2.924999926108285E-001
-4.2526129E-001	4.905987230915994E-001	3.092999921864248E-001
-4.2623600E-001	4.719337336470684E-001	3.258999917670735E-001
-4.2724264E-001	4.552850593667896E-001	3.426999913426698E-001
-4.2825922E-001	4.394974090490071E-001	3.592999909233185E-001
-4.2924881E-001	4.365947600329938E-001	3.758999905039673E-001
-4.3022713E-001	4.200853640544735E-001	3.926999900795636E-001
-4.3304461E-001	3.708343792907774E-001	4.392999889023486E-001
-4.3402994E-001	3.643138215463209E-001	4.558999884829973E-001
-4.3507954E-001	3.558595342023496E-001	4.726999880585936E-001
-4.3607432E-001	3.510980542873345E-001	4.892999876392423E-001
-4.3708652E-001	3.497189310979527E-001	5.058999872198910E-001
-4.3810120E-001	3.431527434206689E-001	5.226999867954873E-001
-4.3910843E-001	3.359587561877246E-001	5.392999863761361E-001
-4.4005665E-001	3.445935332237031E-001	5.558999859567848E-001
-4.4109151E-001	3.386517360620189E-001	5.726999855323811E-001
-4.4205734E-001	3.377509286813423E-001	5.892999851130298E-001
-4.4305119E-001	3.190286141799552E-001	6.058999846936786E-001
-4.4406694E-001	3.151315452593064E-001	6.226999842692749E-001
-4.4503993E-001	3.208488739240494E-001	6.392999838499236E-001
-4.4598377E-001	3.188340735890809E-001	6.558999834305723E-001
-4.4703043E-001	3.067610201270625E-001	6.726999830061686E-001
-4.4810438E-001	3.092321586029403E-001	6.892999825868174E-001
-4.4902048E-001	3.120681950118814E-001	7.058999821674661E-001
-4.5006537E-001	3.220683701853799E-001	7.226999817430624E-001
-4.5106801E-001	3.077333058541027E-001	7.392999813237111E-001
-4.5208156E-001	2.931044295802714E-001	7.558999809043598E-001
-4.5307559E-001	2.970525427483439E-001	7.726999804799561E-001
-4.5407379E-001	2.897012491896747E-001	7.892999800606049E-001
-4.5504203E-001	2.913450467038059E-001	8.058999796412536E-001
-4.5605436E-001	2.980307248772833E-001	8.226999792168499E-001
-4.5703050E-001	2.954065449370269E-001	8.392999787974986E-001
-4.5804617E-001	2.747700901681363E-001	8.558999783781474E-001
-4.5910403E-001	2.693105793247597E-001	8.726999779537437E-001
-4.6003857E-001	2.608917702734459E-001	8.892999775343924E-001
-4.6104568E-001	2.613811050003623E-001	9.058999771150411E-001
-4.6206728E-001	2.635602402252455E-001	9.226999766906374E-001
-4.6309510E-001	2.624803176087644E-001	9.392999762712861E-001
-4.6408936E-001	2.620933191664525E-001	9.558999758519349E-001
-4.6506926E-001	2.600732795728571E-001	9.726999754275312E-001
-4.6605763E-001	2.583511736957969E-001	9.892999750081799E-001
-4.6705258E-001	2.585802922853153E-001	1.005899974588829E+000
-4.6803287E-001	2.518052422876151E-001	1.022699974164425E+000
-4.6900916E-001	2.587818227470340E-001	1.039299973745074E+000
-4.7001043E-001	2.480732177663587E-001	1.055899973325722E+000
-4.7107923E-001	2.368863204949430E-001	1.072699972901319E+000
-4.7207668E-001	2.244847958772960E-001	1.089299972481967E+000
-4.7301164E-001	2.192989520304320E-001	1.105899972062616E+000
-4.7401267E-001	2.221683848400906E-001	1.122699971638212E+000
-4.7505033E-001	2.184168667035797E-001	1.139299971218861E+000
-4.7603109E-001	2.102248135995546E-001	1.155899970799510E+000
-4.7704571E-001	2.096993882146978E-001	1.172699970375106E+000
-4.7803780E-001	2.081727766038637E-001	1.189299969955755E+000
-4.7904751E-001	1.979039002292686E-001	1.205899969536404E+000
-4.8002332E-001	2.008536884902667E-001	1.222699969112000E+000
-4.8105255E-001	1.951872092733785E-001	1.239299968692649E+000
-4.8202723E-001	1.871114998093497E-001	1.255899968273297E+000
-4.8305866E-001	1.793366114722774E-001	1.272699967848894E+000
-4.8401728E-001	1.727247058786452E-001	1.289299967429542E+000
-4.8503259E-001	1.724864584104058E-001	1.305899967010191E+000
-4.8607013E-001	1.792275907016463E-001	1.322699966585787E+000
-4.8705506E-001	1.928668544896777E-001	1.339299966166436E+000
-4.8804882E-001	1.875540538670277E-001	1.355899965747085E+000
-4.8904064E-001	1.819054975505514E-001	1.372699965322681E+000
-4.9004221E-001	1.850122649802108E-001	1.389299964903330E+000
-4.9100596E-001	1.872705822665663E-001	1.405899964483979E+000
-4.9208084E-001	1.936660115896833E-001	1.422699964059575E+000
-4.9311906E-001	1.893774177258227E-001	1.439299963640224E+000
-4.9407792E-001	1.870648649190034E-001	1.455899963220872E+000
-4.9502975E-001	1.845429237652571E-001	1.472699962796469E+000
-4.9604905E-001	1.780071439625077E-001	1.489299962377117E+000
-4.9700576E-001	1.831993583496658E-001	1.505899961957766E+000
-4.9808082E-001	1.694490365942740E-001	1.522699961533363E+000
-4.9907583E-001	1.683903082718872E-001	1.539299961114011E+000
-5.0007796E-001	1.727714854095961E-001	1.555899960694660E+000
-5.0107068E-001	1.774912668909470E-001	1.572699960270256E+000
-5.0205004E-001	1.770138278324158E-001	1.589299959850905E+000
-5.0305140E-001	1.794761253779539E-001	1.605899959431554E+000
-5.0405991E-001	1.765643830276624E-001	1.622699959007150E+000
-5.0505346E-001	1.710266407568830E-001	1.639299958587799E+000
-5.0602573E-001	1.699106202098637E-001	1.655899958168447E+000
-5.0708640E-001	1.672146270362038E-001	1.672699957744044E+000
-5.0803858E-001	1.744272583867950E-001	1.689299957324693E+000
-5.0905997E-001	1.706713857967408E-001	1.705899956905341E+000
-5.1008403E-001	1.672115656712820E-001	1.722699956480938E+000
-5.1106817E-001	1.643611279119628E-001	1.739299956061586E+000
-5.1211709E-001	1.596222648107346E-001	1.755899955642235E+000
-5.1311332E-001	1.612605291491166E-001	1.772699955217831E+000
-5.1409829E-001	1.564628306496887E-001	1.789299954798480E+000
-5.1504976E-001	1.530812970931741E-001	1.805899954379129E+000
-5.1611489E-001	1.496400546448097E-001	1.822699953954725E+000
-5.1710713E-001	1.508609000350236E-001	1.839299953535374E+000
-5.1806933E-001	1.461036402080214E-001	1.855899953116023E+000
-5.1906252E-001	1.422631465741953E-001	1.872699952691619E+000
-5.2005988E-001	1.399202032506258E-001	1.889299952272268E+000
-5.2108812E-001	1.407754229345461E-001	1.905899951852916E+000
-5.2208084E-001	1.415541062897283E-001	1.922699951428513E+000
-5.2308148E-001	1.383304827499918E-001	1.939299951009161E+000
-5.2407062E-001	1.376468927485655E-001	1.955899950589810E+000
-5.2509266E-001	1.335426306584850E-001	1.972699950165406E+000
-5.2607208E-001	1.352647764328863E-001	1.989299949746055E+000
-5.2703714E-001	1.328528261991841E-001	2.005899949326704E+000
-5.2807796E-001	1.312888522948028E-001	2.022699948902300E+000
-5.2910918E-001	1.335511493781167E-001	2.039299948482949E+000
-5.3008294E-001	1.311665278874958E-001	2.055899948063598E+000
-5.3105998E-001	1.367903938987811E-001	2.072699947639194E+000
-5.3208518E-001	1.365935423680482E-001	2.089299947219843E+000
-5.3306735E-001	1.340722992493664E-001	2.105899946800491E+000
-5.3407300E-001	1.389719008400827E-001	2.122699946376088E+000
-5.3507310E-001	1.389577053326900E-001	2.139299945956736E+000
-5.3610486E-001	1.323089880579048E-001	2.155899945537385E+000
-5.3708249E-001	1.281630974206036E-001	2.172699945112981E+000
-5.3811640E-001	1.241191542505593E-001	2.189299944693630E+000
-5.3909731E-001	1.266424190273711E-001	2.205899944274279E+000
-5.4009449E-001	1.278359436295509E-001	2.222699943849875E+000
-5.4107600E-001	1.305182267213238E-001	2.239299943430524E+000
-5.4210043E-001	1.314861844123034E-001	2.255899943011173E+000
-5.4308754E-001	1.332524293262720E-001	2.272699942586769E+000
-5.4407537E-001	1.323719914852538E-001	2.289299942167418E+000
-5.4509735E-001	1.273754987953645E-001	2.305899941748066E+000
-5.4609317E-001	1.262617848829060E-001	2.322699941323663E+000
-5.4710519E-001	1.295767697893702E-001	2.339299940904311E+000
-5.4806876E-001	1.337639328247557E-001	2.355899940484960E+000
-5.4912001E-001	1.328792474744849E-001	2.372699940060556E+000
-5.5008453E-001	1.337463359917614E-001	2.389299939641205E+000
-5.5107427E-001	1.314387555047865E-001	2.405899939221854E+000
-5.5209160E-001	1.299687500841296E-001	2.422699938797450E+000
-5.5309713E-001	1.337698843330145E-001	2.439299938378099E+000
-5.5408001E-001	1.361725676830656E-001	2.455899937958748E+000
-5.5512083E-001	1.359393294238384E-001	2.472699937534344E+000
-5.5609167E-001	1.376332320309137E-001	2.489299937114993E+000
-5.5708671E-001	1.313517123590124E-001	2.505899936695641E+000
-5.5806172E-001	1.281339531376336E-001	2.522699936271238E+000
-5.5908114E-001	1.281171866444251E-001	2.539299935851886E+000
-5.6005895E-001	1.282203667559143E-001	2.555899935432535E+000
-5.6109065E-001	1.251913579325705E-001	2.572699935008131E+000
-5.6206000E-001	1.212384078455053E-001	2.589299934588780E+000
-5.6306255E-001	1.228427699435926E-001	2.605899934169429E+000
-5.6406140E-001	1.209987640675788E-001	2.622699933745025E+000
-5.6504828E-001	1.182708665454349E-001	2.639299933325674E+000
-5.6605446E-001	1.195504532578516E-001	2.655899932906323E+000
-5.6703824E-001	1.190226952426345E-001	2.672699932481919E+000
-5.6807345E-001	1.247174403630202E-001	2.689299932062568E+000
-5.6906104E-001	1.254545608882066E-001	2.705899931643216E+000
-5.7007599E-001	1.263370841777784E-001	2.722699931218813E+000
-5.7105339E-001	1.202476887260042E-001	2.739299930799461E+000
-5.7206118E-001	1.139433247709853E-001	2.755899930380110E+000
-5.7307130E-001	1.148795246027617E-001	2.772699929955706E+000
-5.7406217E-001	1.112277698899720E-001	2.789299929536355E+000
-5.7508212E-001	1.139031929657278E-001	2.805899929117004E+000
-5.7608628E-001	1.121675317035993E-001	2.822699928692600E+000
-5.7707506E-001	1.106295952573420E-001	2.839299928273249E+000
-5.7806915E-001	1.016109535667220E-001	2.855899927853898E+000
-5.7909656E-001	9.977182794517542E-002	2.872699927429494E+000
-5.8008868E-001	9.991602908457731E-002	2.889299927010143E+000
-5.8109522E-001	1.013296979293227E-001	2.905899926590791E+000
-5.8207256E-001	1.028427872149690E-001	2.922699926166388E+000
-5.8306271E-001	9.946461707767473E-002	2.939299925747036E+000
-5.8410543E-001	9.815261465238595E-002	2.955899925327685E+000
-5.8508366E-001	1.028317335449778E-001	2.972699924903282E+000
-5.8607584E-001	1.062227892963632E-001	2.989299924483930E+000
-5.8708423E-001	1.039220730111827E-001	3.005899924064579E+000
-5.8807391E-001	1.026853081361494E-001	3.022699923640175E+000
-5.8910960E-001	1.003538353585948E-001	3.039299923220824E+000
-5.9008986E-001	9.294561322519784E-002	3.055899922801473E+000
-5.9107840E-001	9.203411432034869E-002	3.072699922377069E+000
-5.9207529E-001	9.014547736177037E-002	3.089299921957718E+000
-5.9309018E-001	9.048456505613589E-002	3.105899921538366E+000
-5.9408861E-001	8.845020304175311E-002	3.122699921113963E+000
-5.9510535E-001	9.152103781803622E-002	3.139299920694612E+000
-5.9607261E-001	9.036073381339960E-002	3.155899920275260E+000
-5.9711134E-001	9.318264098838025E-002	3.172699919850857E+000
-5.9808332E-001	9.230744211934527E-002	3.189299919431505E+000
-5.9908265E-001	9.000192773890614E-002	3.205899919012154E+000
-6.0006291E-001	8.658336834050707E-002	3.222699918587750E+000
-6.0106564E-001	8.527858482880740E-002	3.239299918168399E+000
-6.0207224E-001	8.533254956205677E-002	3.255899917749048E+000
-6.0308039E-001	8.497853956495760E-002	3.272699917324644E+000
-6.0403496E-001	8.582081948096554E-002	3.289299916905293E+000
-6.0507214E-001	9.005736891232030E-002	3.305899916485942E+000
-6.0608381E-001	8.936170956689038E-002	3.322699916061538E+000
-6.0702956E-001	9.030542455613605E-002	3.339299915642187E+000
-6.0806417E-001	8.656026990722021E-002	3.355899915222835E+000
-6.0904592E-001	8.306266055701084E-002	3.372699914798432E+000
-6.1001855E-001	8.129259302125624E-002	3.389299914379080E+000
-6.1104298E-001	8.296586302522968E-002	3.405899913959729E+000
-6.1205286E-001	8.223240247099817E-002	3.422699913535325E+000
-6.1301005E-001	8.176916450882987E-002	3.439299913115974E+000
-6.1404246E-001	8.337549565929070E-002	3.455899912696623E+000
-6.1505991E-001	8.648201986785165E-002	3.472699912272219E+000
-6.1606222E-001	8.911962223290981E-002	3.489299911852868E+000
-6.1704504E-001	8.466611197580476E-002	3.505899911433517E+000
-6.1806881E-001	8.278581147082109E-002	3.522699911009113E+000
-6.1906385E-001	8.559048675362835E-002	3.539299910589762E+000
-6.2005806E-001	8.736704739535006E-002	3.555899910170410E+000
-6.2105757E-001	8.385745986416504E-002	3.572699909746007E+000
-6.2208086E-001	8.333263205519548E-002	3.589299909326655E+000
-6.2303740E-001	7.923018764963163E-002	3.605899908907304E+000
-6.2407655E-001	7.794789248870493E-002	3.622699908482900E+000
-6.2506515E-001	7.601570086294940E-002	3.639299908063549E+000
-6.2607569E-001	7.695960387406497E-002	3.655899907644198E+000
-6.2709171E-001	7.595365961573797E-002	3.672699907219794E+000
-6.2806052E-001	7.623876033376698E-002	3.689299906800443E+000
-6.2905157E-001	7.539279447118208E-002	3.705899906381092E+000
-6.3008690E-001	7.542905965121459E-002	3.722699905956688E+000
-6.3103557E-001	7.807151860764439E-002	3.739299905537337E+000
-6.3202971E-001	7.732375655892415E-002	3.755899905117985E+000
-6.3309014E-001	7.734052764458804E-002	3.772699904693582E+000
-6.3404304E-001	7.460850099774241E-002	3.789299904274230E+000
-6.3508749E-001	7.317794934975835E-002	3.805899903854879E+000
-6.3606358E-001	7.522382006282002E-002	3.822699903430475E+000
-6.3704169E-001	7.418821073318338E-002	3.839299903011124E+000
-6.3802052E-001	7.324101286681595E-002	3.855899902591773E+000
-6.3902754E-001	7.813438331061584E-002	3.872699902167369E+000
-6.4007246E-001	7.666236153984821E-002	3.889299901748018E+000
-6.4104402E-001	7.673938544260137E-002	3.905899901328667E+000
-6.4211184E-001	7.604810132127682E-002	3.922699900904263E+000
-6.4304626E-001	7.634111072997496E-002	3.939299900484912E+000
-6.4405668E-001	7.685643615640914E-002	3.955899900065560E+000
-6.4507520E-001	7.472607060568404E-002	3.972699899641157E+000
-6.4609444E-001	7.407733166616226E-002	3.989299899221805E+000
-6.4706415E-001	7.359779166394032E-002	4.005899898802454E+000
-6.4807630E-001	6.697743384374519E-002	4.022699898378050E+000
-6.4909017E-001	6.612241164108523E-002	4.039299897958699E+000
-6.5004015E-001	6.530298614305363E-002	4.055899897539348E+000
-6.5105432E-001	6.489695709509169E-002	4.072699897114944E+000
-6.5201688E-001	6.269345291760853E-002	4.089299896695593E+000
-6.5303189E-001	5.864429060783655E-002	4.105899896276242E+000
-6.5403694E-001	5.820369822645777E-002	4.122699895851838E+000
-6.5507007E-001	5.676733819121083E-002	4.139299895432487E+000
-6.5605593E-001	5.739715855465177E-002	4.155899895013135E+000
-6.5703201E-001	5.776853458671319E-002	4.172699894588732E+000
-6.5805089E-001	5.743929597005859E-002	4.189299894169380E+000
-6.5905601E-001	5.534153094722175E-002	4.205899893750029E+000
-6.6003293E-001	5.537599638777063E-002	4.222699893325625E+000
-6.6101450E-001	5.225471819932068E-002	4.239299892906274E+000
-6.6199499E-001	5.189174286374398E-002	4.255899892486923E+000
-6.6297477E-001	5.137755488588780E-002	4.272699892062519E+000
-6.6400218E-001	5.240137800574307E-002	4.289299891643168E+000
-6.6504800E-001	5.151461107035502E-002	4.305899891223817E+000
-6.6606587E-001	5.013698617410312E-002	4.322699890799413E+000
-6.6707772E-001	4.967607057601631E-002	4.339299890380062E+000
-6.6805834E-001	5.166969757320145E-002	4.355899889960710E+000
-6.6908902E-001	5.126391361364076E-002	4.372699889536307E+000
-6.7005032E-001	4.948584933428912E-002	4.389299889116955E+000
-6.7105299E-001	4.931296502628058E-002	4.405899888697604E+000
-6.7206961E-001	5.070924676049293E-002	4.422699888273200E+000
-6.7309701E-001	5.049598607208787E-002	4.439299887853849E+000
-6.7407733E-001	5.023539420346623E-002	4.455899887434498E+000
-6.7509139E-001	5.066873075285289E-002	4.472699887010094E+000
-6.7606354E-001	5.514304440830753E-002	4.489299886590743E+000
-6.7702347E-001	5.654896927609421E-002	4.505899886171392E+000
-6.7806953E-001	5.850868441190371E-002	4.522699885746988E+000
-6.7902696E-001	6.362774885958056E-002	4.539299885327637E+000
-6.8004477E-001	6.294542567726868E-002	4.555899884908285E+000
-6.8102914E-001	6.117861374462433E-002	4.572699884483882E+000
-6.8202764E-001	6.308056289174901E-002	4.589299884064530E+000
-6.8304574E-001	5.866806507576255E-002	4.605899883645179E+000
-6.8407965E-001	5.856599845716515E-002	4.622699883220776E+000
-6.8502742E-001	6.015756025574068E-002	4.639299882801424E+000
-6.8602121E-001	5.889971835254165E-002	4.655899882382073E+000
-6.8704855E-001	5.760055019494369E-002	4.672699881957669E+000
-6.8806654E-001	5.620179357007163E-002	4.689299881538318E+000
-6.8902206E-001	5.589545936090884E-002	4.705899881118967E+000
-6.9005758E-001	5.481961372541280E-002	4.722699880694563E+000
-6.9104880E-001	5.546414275369116E-002	4.739299880275212E+000
-6.9204974E-001	5.525708071447710E-002	4.755899879855860E+000
-6.9310731E-001	5.214915983275414E-002	4.772699879431457E+000
-6.9407743E-001	5.082057607360180E-002	4.789299879012106E+000
-6.9508100E-001	4.979657158979944E-002	4.805899878592754E+000
-6.9607061E-001	4.840062000374823E-002	4.822699878168351E+000
-6.9707471E-001	4.747664620634184E-002	4.839299877748999E+000
-6.9807327E-001	4.601789862797079E-002	4.855899877329648E+000
-6.9905925E-001	4.597253823601144E-002	4.872699876905244E+000
-7.0004559E-001	4.607274859548660E-002	4.889299876485893E+000
-7.0102626E-001	4.580713615054266E-002	4.905899876066542E+000
-7.0207429E-001	4.480780600802964E-002	4.922699875642138E+000
-7.0398605E-001	4.294306480941462E-002	4.954299874843855E+000
-7.0576823E-001	4.225332550135330E-002	4.985899874045572E+000
-7.0681691E-001	4.225794128375127E-002	5.002699873621168E+000
-7.0777678E-001	4.242350411963525E-002	5.019299873201817E+000
-7.0873141E-001	4.308119619368678E-002	5.035899872782466E+000
-7.0978510E-001	4.319006089509159E-002	5.052699872358062E+000
-7.1078765E-001	4.091866203868311E-002	5.069299871938711E+000
-7.1177912E-001	4.055549997086116E-002	5.085899871519359E+000
-7.1277761E-001	4.079926403989595E-002	5.102699871094956E+000
-7.1377587E-001	4.084164836650928E-002	5.119299870675604E+000
-7.1484220E-001	4.155008654731029E-002	5.135899870256253E+000
-7.1584231E-001	4.279887543137495E-002	5.152699869831849E+000
-7.1684170E-001	4.588014074549518E-002	5.169299869412498E+000
-7.1782941E-001	4.380954236102630E-002	5.185899868993147E+000
-7.1886671E-001	4.135980656267024E-002	5.202699868568743E+000
-7.1984231E-001	3.996089425351879E-002	5.219299868149392E+000
-7.2089386E-001	4.137004507007080E-002	5.235899867730041E+000
-7.2192401E-001	4.078249399886580E-002	5.252699867305637E+000
-7.2287571E-001	3.834495448843689E-002	5.269299866886286E+000
-7.2385150E-001	3.826142367027274E-002	5.285899866466934E+000
-7.2483510E-001	3.791729121973442E-002	5.302699866042531E+000
-7.2583365E-001	3.889697018519261E-002	5.319299865623179E+000
-7.2688693E-001	3.816304644375712E-002	5.335899865203828E+000
-7.2789097E-001	3.928088530717011E-002	5.352699864779424E+000
-7.2886872E-001	4.045065923154156E-002	5.369299864360073E+000
-7.2983342E-001	4.106729078287688E-002	5.385899863940722E+000
-7.3081541E-001	4.037737518833537E-002	5.402699863516318E+000
-7.3185265E-001	3.778464121355996E-002	5.419299863096967E+000
-7.3284614E-001	3.743570553074171E-002	5.435899862677616E+000
-7.3384035E-001	3.739794964358811E-002	5.452699862253212E+000
-7.3479545E-001	3.612515517639836E-002	5.469299861833861E+000
-7.3578292E-001	3.617928122066788E-002	5.485899861414509E+000
-7.3683220E-001	3.507592993012332E-002	5.502699860990106E+000
-7.3790795E-001	3.478739392348662E-002	5.519299860570754E+000
-7.3880488E-001	3.547136058203043E-002	5.535899860151403E+000
-7.3983979E-001	3.531289545560473E-002	5.552699859726999E+000
-7.4083745E-001	3.523565178517141E-002	5.569299859307648E+000
-7.4181896E-001	3.629858969633160E-002	5.585899858888297E+000
-7.4283820E-001	3.672740837158117E-002	5.602699858463893E+000
-7.4383652E-001	3.592987665790137E-002	5.619299858044542E+000
-7.4484533E-001	3.471946850858854E-002	5.635899857625191E+000
-7.4587166E-001	3.602109460289482E-002	5.652699857200787E+000
-7.4681324E-001	3.476783073921141E-002	5.669299856781436E+000
-7.4784005E-001	3.514787893949284E-002	5.685899856362084E+000
-7.4884409E-001	3.502059471017382E-002	5.702699855937681E+000
-7.4981290E-001	3.549659852494669E-002	5.719299855518329E+000
-7.5080335E-001	3.760567557739292E-002	5.735899855098978E+000
-7.5180101E-001	3.765600691264914E-002	5.752699854674574E+000
-7.5284958E-001	3.801001091604128E-002	5.769299854255223E+000
-7.5381011E-001	3.747093912886657E-002	5.785899853835872E+000
-7.5484854E-001	3.685166548665919E-002	5.802699853411468E+000
-7.5581580E-001	3.650988319630005E-002	5.819299852992117E+000
-7.5683224E-001	3.595439158367120E-002	5.835899852572766E+000
-7.5782144E-001	3.544547108506474E-002	5.852699852148362E+000
-7.5881630E-001	3.402606230371408E-002	5.869299851729011E+000
-7.5982529E-001	3.362924607263668E-002	5.885899851309659E+000
-7.6084328E-001	3.241240166386372E-002	5.902699850885256E+000
-7.6181501E-001	3.218167923339110E-002	5.919299850465904E+000
-7.6281744E-001	3.206853903752441E-002	5.935899850046553E+000
-7.6384580E-001	3.426280105331303E-002	5.952699849622149E+000
-7.6482832E-001	3.476538801242379E-002	5.969299849202798E+000
-7.6583838E-001	3.313343987942471E-002	5.985899848783447E+000
-7.6682007E-001	3.311636196087209E-002	6.002699848359043E+000
-7.6784468E-001	3.380560588738374E-002	6.019299847939692E+000
-7.6881456E-001	3.387313619178406E-002	6.035899847520341E+000
-7.6985431E-001	3.405313566650482E-002	6.052699847095937E+000
-7.7079511E-001	3.344565935523447E-002	6.069299846676586E+000
-7.7186710E-001	3.251580523598625E-002	6.085899846257234E+000
-7.7279949E-001	3.251074544179977E-002	6.102699845832831E+000
-7.7382147E-001	3.146348900135827E-002	6.119299845413479E+000
-7.7477914E-001	3.133989497152576E-002	6.135899844994128E+000
-7.7584356E-001	3.257337829279172E-002	6.152699844569725E+000
-7.7680343E-001	3.045914667451549E-002	6.169299844150373E+000
-7.7779543E-001	3.025408183146883E-002	6.185899843731022E+000
-7.7881581E-001	3.032904373158501E-002	6.202699843306618E+000
-7.7983040E-001	2.944675652556018E-002	6.219299842887267E+000
-7.8085637E-001	2.872453203554159E-002	6.235899842467916E+000
-7.8184712E-001	2.709542162405942E-002	6.252699842043512E+000
-7.8281927E-001	2.706701165414432E-002	6.269299841624161E+000
-7.8383112E-001	2.703160091031659E-002	6.285899841204809E+000
-7.8482729E-001	2.687391784417234E-002	6.302699840780406E+000
-7.8579766E-001	2.664538252995249E-002	6.319299840361055E+000
-7.8685325E-001	2.610587041048962E-002	6.335899839941703E+000
-7.8781480E-001	2.649078436907271E-002	6.352699839517300E+000
-7.8880072E-001	2.638074635851401E-002	6.369299839097948E+000
-7.8979611E-001	2.600432942867186E-002	6.385899838678597E+000
-7.9081869E-001	2.410339459828631E-002	6.402699838254193E+000
-7.9180765E-001	2.277125762672058E-002	6.419299837834842E+000
-7.9276311E-001	2.271606340060112E-002	6.435899837415491E+000
-7.9376334E-001	2.333087315757046E-002	6.452699836991087E+000
-7.9480827E-001	2.453711474184980E-002	6.469299836571736E+000
-7.9582411E-001	2.607625632042387E-002	6.485899836152385E+000
-7.9676926E-001	2.656859212076401E-002	6.502699835727981E+000
-7.9780757E-001	2.535492885508578E-002	6.519299835308630E+000
-7.9882586E-001	2.530843640651759E-002	6.535899834889278E+000
-7.9979885E-001	2.526082554948522E-002	6.552699834464875E+000
-8.0076391E-001	2.497347563660390E-002	6.569299834045523E+000
-8.0180275E-001	2.535407680164409E-002	6.585899833626172E+000
-8.0278999E-001	2.421822052345510E-002	6.602699833201768E+000
-8.0381858E-001	2.434878844534988E-002	6.619299832782417E+000
-8.0477136E-001	2.505442379404688E-002	6.635899832363066E+000
-8.0582464E-001	2.515338782544452E-002	6.652699831938662E+000
-8.0681312E-001	2.440366374677985E-002	6.669299831519311E+000
-8.0781657E-001	2.515090175684448E-002	6.685899831099960E+000
-8.0881506E-001	2.596243254426453E-002	6.702699830675556E+000
-8.0983865E-001	2.573972141460718E-002	6.719299830256205E+000
-8.1082428E-001	2.584255866253648E-002	6.735899829836853E+000
-8.1180048E-001	2.606285823560844E-002	6.752699829412450E+000
-8.1281155E-001	2.572931599053041E-002	6.769299828993098E+000
-8.1379902E-001	2.406951056793338E-002	6.785899828573747E+000
-8.1482869E-001	2.336471624969910E-002	6.802699828149343E+000
-8.1582111E-001	2.391626324685709E-002	6.819299827729992E+000
-8.1681031E-001	2.392373940842737E-002	6.835899827310641E+000
-8.1777686E-001	2.494539777347304E-002	6.852699826886237E+000
-8.1879634E-001	2.436151051738616E-002	6.869299826466886E+000
-8.1979388E-001	2.534466881292058E-002	6.885899826047535E+000
-8.2086873E-001	2.468704287557755E-002	6.902699825623131E+000
-8.2188141E-001	2.500402896315798E-002	6.919299825203780E+000
-8.2284409E-001	2.525782484651756E-002	6.935899824784428E+000
-8.2387054E-001	2.557536305122377E-002	6.952699824360025E+000
-8.2483000E-001	2.585201002010659E-002	6.969299823940673E+000
-8.2582653E-001	2.634230556121714E-002	6.985899823521322E+000
-8.2681900E-001	2.656941483353473E-002	7.002699823096918E+000
-8.2780457E-001	2.652153173875481E-002	7.019299822677567E+000
-8.2884711E-001	2.564185330139793E-002	7.035899822258216E+000
-8.2981014E-001	2.416579808289608E-002	7.052699821833812E+000
-8.3083099E-001	2.330608557857994E-002	7.069299821414461E+000
-8.3178991E-001	2.221005433174374E-002	7.085899820995110E+000
-8.3279330E-001	2.167508677359570E-002	7.102699820570706E+000
-8.3381635E-001	2.291059633290082E-002	7.119299820151355E+000
-8.3482122E-001	2.330834067400753E-002	7.135899819732003E+000
-8.3581835E-001	2.284222071744602E-002	7.152699819307600E+000
-8.3678973E-001	2.222584391879434E-002	7.169299818888248E+000
-8.3778989E-001	2.194532475317834E-002	7.185899818468897E+000
-8.3880419E-001	2.058574452284834E-002	7.202699818044493E+000
-8.3978188E-001	2.103835938989929E-002	7.219299817625142E+000
-8.4077483E-001	2.099308388036063E-002	7.235899817205791E+000
-8.4179699E-001	2.104729368247918E-002	7.252699816781387E+000
-8.4281623E-001	2.152227483638058E-002	7.269299816362036E+000
-8.4380621E-001	2.130465461846659E-002	7.285899815942685E+000
-8.4482324E-001	2.132870703573453E-002	7.302699815518281E+000
-8.4579486E-001	2.125649809164726E-002	7.319299815098930E+000
-8.4681147E-001	2.103310887714743E-002	7.335899814679578E+000
-8.4784514E-001	2.152999792235066E-002	7.352699814255175E+000
-8.4880376E-001	2.110668180872571E-002	7.369299813835823E+000
-8.4983778E-001	1.951812345146509E-002	7.385899813416472E+000
-8.5081685E-001	1.901240860707018E-002	7.402699812992068E+000
-8.5182065E-001	1.853170815460748E-002	7.419299812572717E+000
-8.5278755E-001	1.768994271367164E-002	7.435899812153366E+000
-8.5384649E-001	1.747551299638056E-002	7.452699811728962E+000
-8.5482955E-001	1.780071633001271E-002	7.469299811309611E+000
-8.5582030E-001	1.774562821231990E-002	7.485899810890260E+000
-8.5681468E-001	1.730236689961095E-002	7.502699810465856E+000
-8.5781682E-001	1.681812634115984E-002	7.519299810046505E+000
-8.5881013E-001	1.787745469301533E-002	7.535899809627153E+000
-8.5984755E-001	1.647959459430744E-002	7.552699809202750E+000
-8.6081439E-001	1.753755875462151E-002	7.569299808783398E+000
-8.6188126E-001	1.686741689252419E-002	7.585899808364047E+000
-8.6282849E-001	1.664366590848662E-002	7.602699807939644E+000
-8.6380500E-001	1.610777719418467E-002	7.619299807520292E+000
-8.6481255E-001	1.597529986401136E-002	7.635899807100941E+000
-8.6583900E-001	1.547971707626450E-002	7.652699806676537E+000
-8.6682498E-001	1.556501322749276E-002	7.669299806257186E+000
-8.6780709E-001	1.538696614527410E-002	7.685899805837835E+000
-8.6880565E-001	1.537456933189084E-002	7.702699805413431E+000
-8.6984944E-001	1.451049515505373E-002	7.719299804994080E+000
-8.7076515E-001	1.381381463873871E-002	7.735899804574728E+000
-8.7181103E-001	1.359215361648249E-002	7.752699804150325E+000
-8.7282336E-001	1.305925807081321E-002	7.769299803730974E+000
-8.7378371E-001	1.299709902229047E-002	7.785899803311622E+000
-8.7481362E-001	1.332761228304460E-002	7.802699802887219E+000
-8.7579221E-001	1.307247765814991E-002	7.819299802467867E+000
-8.7675261E-001	1.280332982895846E-002	7.835899802048516E+000
-8.7776417E-001	1.285464712334543E-002	7.852699801624112E+000
-8.7882411E-001	1.268174548419962E-002	7.869299801204761E+000
-8.7983871E-001	1.288923877802313E-002	7.885899800785410E+000
-8.8082510E-001	1.316397254303513E-002	7.902699800361006E+000
-8.8176012E-001	1.317579480405480E-002	7.919299799941655E+000
-8.8278204E-001	1.273806206384004E-002	7.935899799522304E+000
-8.8377243E-001	1.268011636689259E-002	7.952699799097900E+000
-8.8481617E-001	1.234095693300735E-002	7.969299798678549E+000
-8.8577151E-001	1.200321558927600E-002	7.985899798259197E+000
-8.8676637E-001	1.180033788143198E-002	8.002699797834794E+000
-8.8777065E-001	1.129831782134721E-002	8.019299797415442E+000
-8.8875413E-001	1.087489028713506E-002	8.035899796996091E+000
-8.8975948E-001	1.068626116333884E-002	8.052699796571687E+000
-8.9076233E-001	1.066120635097230E-002	8.069299796152336E+000
-8.9174324E-001	1.046706388536331E-002	8.085899795732985E+000
-8.9278185E-001	1.045381401950082E-002	8.102699795308581E+000
-8.9372921E-001	1.036649165720313E-002	8.119299794889230E+000
-8.9478272E-001	1.007295111349470E-002	8.135899794469879E+000
-8.9577258E-001	9.918503937466683E-003	8.152699794045475E+000
-8.9680153E-001	9.752503126510381E-003	8.169299793626124E+000
-8.9778811E-001	9.646983763118937E-003	8.185899793206772E+000
-8.9878511E-001	9.450292887599465E-003	8.202699792782369E+000
-8.9983559E-001	9.259430287024167E-003	8.219299792363017E+000
-9.0081650E-001	9.084469660495705E-003	8.235899791943666E+000
-9.0180582E-001	8.796433332641351E-003	8.252699791519262E+000
-9.0278625E-001	8.378947274015641E-003	8.269299791099911E+000
-9.0376478E-001	8.076672423436924E-003	8.285899790680560E+000
-9.0479189E-001	8.223952880006324E-003	8.302699790256156E+000
-9.0582502E-001	8.010886389464664E-003	8.319299789836805E+000
-9.0679008E-001	7.377803513502132E-003	8.335899789417454E+000
-9.0780979E-001	7.011736750913161E-003	8.352699788993050E+000
-9.0880132E-001	6.890638485007636E-003	8.369299788573699E+000
-9.0978479E-001	6.679149698886451E-003	8.385899788154347E+000
-9.1076720E-001	6.186724491126352E-003	8.402699787729944E+000
-9.1177529E-001	6.022406458634805E-003	8.419299787310592E+000
-9.1277623E-001	5.786271897700854E-003	8.435899786891241E+000
-9.1381520E-001	5.362704432045590E-003	8.452699786466837E+000
-9.1474158E-001	5.605728281209144E-003	8.469299786047486E+000
-9.1573417E-001	5.577945452306346E-003	8.485899785628135E+000
-9.1679132E-001	5.774975868860388E-003	8.502699785203731E+000
-9.1774827E-001	6.038053278623723E-003	8.519299784784380E+000
-9.1877890E-001	6.031383762504759E-003	8.535899784365029E+000
-9.1977167E-001	5.908911792858934E-003	8.552699783940625E+000
-9.2076594E-001	5.553065733466707E-003	8.569299783521274E+000
-9.2182171E-001	5.310433590817024E-003	8.585899783101922E+000
-9.2283374E-001	5.149311549482991E-003	8.602699782677519E+000
-9.2384762E-001	4.881002834752284E-003	8.619299782258167E+000
-9.2483217E-001	4.656671987484312E-003	8.635899781838816E+000
-9.2584133E-001	4.792991680183642E-003	8.652699781414412E+000
-9.2777598E-001	4.080496316229171E-003	8.684299780616129E+000
-9.2975688E-001	3.269527595613105E-003	8.715899779817846E+000
-9.3073452E-001	3.154044982948110E-003	8.732699779393442E+000
-9.3175530E-001	3.092623428221704E-003	8.749299778974091E+000
-9.3271947E-001	3.066773567035063E-003	8.765899778554740E+000
-9.3377769E-001	3.239902660457620E-003	8.782699778130336E+000
-9.3468457E-001	3.224977298329282E-003	8.799299777710985E+000
-9.3574101E-001	2.916086677077044E-003	8.815899777291634E+000
-9.3670833E-001	2.694929832731660E-003	8.832699776867230E+000
-9.3771583E-001	2.658028470856770E-003	8.849299776447879E+000
-9.3869746E-001	2.464205942014821E-003	8.865899776028527E+000
-9.3967223E-001	2.106309639396687E-003	8.882699775604124E+000
-9.4065511E-001	1.774575609694396E-003	8.899299775184772E+000
-9.4168860E-001	1.598222552719464E-003	8.915899774765421E+000
-9.4274342E-001	1.404474637868892E-003	8.932699774341017E+000
-9.4370270E-001	1.165836547127885E-003	8.949299773921666E+000
-9.4471759E-001	8.521565279887809E-004	8.965899773502315E+000
-9.4572759E-001	4.454104487740529E-004	8.982699773077911E+000
-9.4671547E-001	4.120878654430287E-004	8.999299772658560E+000
-9.4773126E-001	3.330353874470243E-004	9.015899772239209E+000
-9.4874537E-001	1.764225451878099E-004	9.032699771814805E+000
-9.4974965E-001	1.810100721715775E-005	9.049299771395454E+000
-9.5073539E-001	-1.539846985654479E-004	9.065899770976102E+000
-9.5172763E-001	-1.917798229871747E-004	9.082699770551699E+000
-9.5273888E-001	-3.183957160035784E-004	9.099299770132347E+000
-9.5371461E-001	-4.427903837394172E-004	9.115899769712996E+000
-9.5471728E-001	-6.458628275888456E-004	9.132699769288593E+000
-9.5575154E-001	-8.433718919938337E-004	9.149299768869241E+000
-9.5669460E-001	-1.052058459204600E-003	9.165899768449890E+000
-9.5773232E-001	-1.202008999785498E-003	9.182699768025486E+000
-9.5873761E-001	-1.359674787414007E-003	9.199299767606135E+000
-9.5972276E-001	-1.542522747218340E-003	9.215899767186784E+000
-9.6070808E-001	-1.648489262871502E-003	9.232699766762380E+000
-9.6172404E-001	-1.841248599553689E-003	9.249299766343029E+000
-9.6273750E-001	-2.041023809296237E-003	9.265899765923677E+000
-9.6374649E-001	-2.182879533720553E-003	9.282699765499274E+000
-9.6472210E-001	-2.394299308062835E-003	9.299299765079923E+000
-9.6572137E-001	-2.484281986261425E-003	9.315899764660571E+000
-9.6672970E-001	-2.643165615105914E-003	9.332699764236168E+000
-9.6772087E-001	-2.799983044500950E-003	9.349299763816816E+000
-9.6873164E-001	-3.038562083675051E-003	9.365899763397465E+000
-9.6974659E-001	-3.235420965275921E-003	9.382699762973061E+000
-9.7072792E-001	-3.438212560787288E-003	9.399299762553710E+000
-9.7168654E-001	-3.594849894402105E-003	9.415899762134359E+000
-9.7272539E-001	-3.708044541223582E-003	9.432699761709955E+000
-9.7372931E-001	-3.868294435055254E-003	9.449299761290604E+000
-9.7473031E-001	-4.103375380881416E-003	9.465899760871253E+000
-9.7570908E-001	-4.291804101570366E-003	9.482699760446849E+000
-9.7667938E-001	-4.438451345098043E-003	9.499299760027498E+000
-9.7773242E-001	-4.648026482884406E-003	9.515899759608146E+000
-9.7871965E-001	-4.808304067636437E-003	9.532699759183743E+000
-9.7967947E-001	-4.986238269646302E-003	9.549299758764391E+000
-9.8069179E-001	-5.123255111199460E-003	9.565899758345040E+000
-9.8172075E-001	-5.217624945507870E-003	9.582699757920636E+000
-9.8269004E-001	-5.350248766092872E-003	9.599299757501285E+000
-9.8368084E-001	-5.494787984773430E-003	9.615899757081934E+000
-9.8468673E-001	-5.640991485884620E-003	9.632699756657530E+000
-9.8571908E-001	-5.800982038328781E-003	9.649299756238179E+000
-9.8668659E-001	-5.953578299991519E-003	9.665899755818828E+000
-9.8770922E-001	-6.086881916174527E-003	9.682699755394424E+000
-9.8869741E-001	-6.223625735923000E-003	9.699299754975073E+000
-9.8965871E-001	-6.373703243443746E-003	9.715899754555721E+000
-9.9067801E-001	-6.490022540286494E-003	9.732699754131318E+000
-9.9171865E-001	-6.605579656218982E-003	9.749299753711966E+000
-9.9266136E-001	-6.728419307134317E-003	9.765899753292615E+000
-9.9367625E-001	-6.845693707550227E-003	9.782699752868211E+000
-9.9469203E-001	-6.954742637042509E-003	9.799299752448860E+000
-9.9564838E-001	-7.060316235260364E-003	9.815899752029509E+000
-9.9668378E-001	-7.160339350779796E-003	9.832699751605105E+000
-9.9768603E-001	-7.257837380489539E-003	9.849299751185754E+000
-9.9872839E-001	-7.351560125955274E-003	9.865899750766403E+000
-9.9973965E-001	-7.441437275200670E-003	9.882699750341999E+000
-1.0007311E+000	-7.527769546593642E-003	9.899299749922648E+000
-1.0017064E+000	-7.614628538786847E-003	9.915899749503296E+000
-1.0027299E+000	-7.697688213665954E-003	9.932699749078893E+000
-1.0037104E+000	-7.776360259611259E-003	9.949299748659541E+000
-1.0047255E+000	-7.859296300125149E-003	9.965899748240190E+000
-1.0056953E+000	-7.940446006541591E-003	9.982699747815786E+000
-1.0067375E+000	-8.022113607083950E-003	9.999299747396435E+000
-1.0076877E+000	-8.112549921788767E-003	1.001589974697708E+001
-1.0087241E+000	-8.191755242005494E-003	1.003269974655268E+001
-1.0097262E+000	-8.293721180719638E-003	1.004929974613333E+001
-1.0106742E+000	-8.385345900153163E-003	1.006589974571398E+001
-1.0117149E+000	-8.467821174320614E-003	1.008269974528957E+001
-1.0127391E+000	-8.571277548746578E-003	1.009929974487022E+001
-1.0136771E+000	-8.680314817659893E-003	1.011589974445087E+001
-1.0147228E+000	-8.784002119015671E-003	1.013269974402647E+001
-1.0157150E+000	-8.891667325676970E-003	1.014929974360712E+001
-1.0166935E+000	-9.003555889293108E-003	1.016589974318777E+001
-1.0177269E+000	-9.131825460450875E-003	1.018269974276336E+001
-1.0186975E+000	-9.259242687775338E-003	1.019929974234401E+001
-1.0196899E+000	-9.377780124874890E-003	1.021589974192466E+001
-1.0207326E+000	-9.509231957910959E-003	1.023269974150026E+001
-1.0216805E+000	-9.675668826934630E-003	1.024929974108090E+001
-1.0226809E+000	-9.897818525658075E-003	1.026589974066155E+001
-1.0237148E+000	-1.002516137681801E-002	1.028269974023715E+001
-1.0247028E+000	-1.021622811967976E-002	1.029929973981780E+001
-1.0257082E+000	-1.045504403229441E-002	1.031589973939845E+001
-1.0266694E+000	-1.065032340062311E-002	1.033269973897404E+001
-1.0285702E+000	-1.086552084872014E-002	1.036429973817576E+001
-1.0303752E+000	-1.053749018982575E-002	1.039589973737748E+001
-1.0313689E+000	-1.083736861848989E-002	1.041269973695307E+001
-1.0323951E+000	-1.113007103985479E-002	1.042929973653372E+001
-1.0333561E+000	-1.133753060925907E-002	1.044589973611437E+001
-1.0343274E+000	-1.150941998846569E-002	1.046269973568997E+001
-1.0353646E+000	-1.185562461110140E-002	1.047929973527062E+001
-1.0363317E+000	-1.206416657006940E-002	1.049589973485126E+001
-1.0374061E+000	-1.311461145575669E-002	1.051269973442686E+001
-1.0383878E+000	-1.384696650545165E-002	1.052929973400751E+001
-1.0394069E+000	-1.423817283726136E-002	1.054589973358816E+001
-1.0403763E+000	-1.466142860157157E-002	1.056269973316375E+001
-1.0414280E+000	-1.516760009418552E-002	1.057929973274440E+001
-1.0424018E+000	-1.561669828797068E-002	1.059589973232505E+001
-1.0434271E+000	-1.625875958222120E-002	1.061269973190065E+001
-1.0443671E+000	-1.688614542324407E-002	1.062929973148130E+001
-1.0454041E+000	-1.749488789167830E-002	1.064589973106195E+001
-1.0464185E+000	-1.821310812652682E-002	1.066269973063754E+001
-1.0473833E+000	-1.913912765727012E-002	1.067929973021819E+001
-1.0483836E+000	-2.023538268805081E-002	1.069589972979884E+001
-1.0494184E+000	-2.134270799798994E-002	1.071269972937444E+001
-1.0504061E+000	-2.277412322427463E-002	1.072929972895508E+001
-1.0514141E+000	-2.418781173156770E-002	1.074589972853573E+001
-1.0524107E+000	-2.599623196784204E-002	1.076269972811133E+001
-1.0534006E+000	-2.955917715107925E-002	1.077929972769198E+001
-1.0544046E+000	-3.243004443136860E-002	1.079589972727263E+001
-1.0554296E+000	-3.559098443676095E-002	1.081269972684822E+001
-1.0564190E+000	-3.928754855490581E-002	1.082929972642887E+001
-1.0573820E+000	-4.443776856254156E-002	1.084589972600952E+001
-1.0584542E+000	-5.104456792197493E-002	1.086269972558512E+001
-1.0594263E+000	-5.857804518555199E-002	1.087929972516577E+001
-1.0604212E+000	-6.839434299100633E-002	1.089589972474641E+001
-1.0614169E+000	-8.273284535570458E-002	1.091269972432201E+001
-1.0624384E+000	-9.783676839226640E-002	1.092929972390266E+001
-1.0643589E+000	-1.484729471664734E-001	1.096089972310438E+001
-1.0662463E+000	-2.102940474605810E-001	1.099269972230104E+001
-1.0672277E+000	-2.473922125167314E-001	1.100929972188169E+001
-1.0681981E+000	-2.895707561531014E-001	1.102589972146234E+001
-1.0691984E+000	-3.434523304675996E-001	1.104269972103793E+001
-1.0702542E+000	-4.076189836549275E-001	1.105929972061858E+001
-1.0711873E+000	-4.823712125255003E-001	1.107589972019923E+001
-1.0722523E+000	-5.705363118586453E-001	1.109269971977483E+001
-1.0732201E+000	-6.512143720976171E-001	1.110929971935548E+001
-1.0741819E+000	-7.469015688242182E-001	1.112589971893613E+001
-1.0752218E+000	-8.458552193931350E-001	1.114269971851172E+001
-1.0761834E+000	-9.351109552755972E-001	1.115929971809237E+001
-1.0781326E+000	-1.103182175616977E+000	1.119089971729409E+001
-1.0800043E+000	-1.284053638370498E+000	1.122269971649075E+001
-1.0809894E+000	-1.376520048843492E+000	1.123929971607140E+001
-1.0820163E+000	-1.481382085871356E+000	1.125589971565205E+001
-1.0830597E+000	-1.589651291469728E+000	1.127269971522765E+001
-1.0840017E+000	-1.691444151467740E+000	1.128929971480829E+001
-1.0850004E+000	-1.790868346856691E+000	1.130589971438894E+001
-1.0860316E+000	-1.892711994954283E+000	1.132269971396454E+001
-1.0870000E+000	-1.997034127405939E+000	1.133929971354519E+001
-1.0880240E+000	-2.098828625033299E+000	1.135589971312584E+001
-1.0890388E+000	-2.203082358704673E+000	1.137269971270143E+001
-1.0900303E+000	-2.311588564895931E+000	1.138929971228208E+001
-1.0909950E+000	-2.414185263555911E+000	1.140589971186273E+001
-1.0920001E+000	-2.515924210366269E+000	1.142269971143833E+001
-1.0930212E+000	-2.618827977561281E+000	1.143929971101898E+001
-1.0940195E+000	-2.721136271009819E+000	1.145589971059962E+001
-1.0950507E+000	-2.822160898033111E+000	1.147269971017522E+001
-1.0960010E+000	-2.920862746023467E+000	1.148929970975587E+001
-1.0970457E+000	-3.022719186279513E+000	1.150589970933652E+001
-1.0980449E+000	-3.125958937356867E+000	1.152269970891211E+001
-1.0990402E+000	-3.226631756458005E+000	1.153929970849276E+001
-1.1000153E+000	-3.324276648975065E+000	1.155589970807341E+001
-1.1010418E+000	-3.424518428610433E+000	1.157269970764901E+001
-1.1020458E+000	-3.520654060807502E+000	1.158929970722966E+001
-1.1030078E+000	-3.616064626475172E+000	1.160589970681031E+001
-1.1040603E+000	-3.713734024249845E+000	1.162269970638590E+001
-1.1050311E+000	-3.811907178759547E+000	1.163929970596655E+001
-1.1060352E+000	-3.908011465519659E+000	1.165589970554720E+001
-1.1070294E+000	-4.003570502466616E+000	1.167269970512280E+001
-1.1080368E+000	-4.097704040308791E+000	1.168929970470344E+001
-1.1090077E+000	-4.194963128980675E+000	1.170589970428409E+001
-1.1100247E+000	-4.290915790415468E+000	1.172269970385969E+001
-1.1110483E+000	-4.384733970132118E+000	1.173929970344034E+001
-1.1119835E+000	-4.479776012036545E+000	1.175589970302099E+001
-1.1130282E+000	-4.575858303474064E+000	1.177269970259658E+001
-1.1140026E+000	-4.667521653953528E+000	1.178929970217723E+001
-1.1150498E+000	-4.759886960105774E+000	1.180589970175788E+001
-1.1160064E+000	-4.853139986776661E+000	1.182269970133348E+001
-1.1170124E+000	-4.944677532282157E+000	1.183929970091413E+001
-1.1180506E+000	-5.035896035333479E+000	1.185589970049477E+001
-1.1190323E+000	-5.130836777389035E+000	1.187269970007037E+001
-1.1200106E+000	-5.222328573233547E+000	1.188929969965102E+001
-1.1209984E+000	-5.313440391057064E+000	1.190589969923167E+001
-1.1220144E+000	-5.406446179846938E+000	1.192269969880726E+001
-1.1230465E+000	-5.497345523039471E+000	1.193929969838791E+001
-1.1240127E+000	-5.586796797745755E+000	1.195589969796856E+001
-1.1250193E+000	-5.679156706929213E+000	1.197269969754416E+001
-1.1260062E+000	-5.770405909419068E+000	1.198929969712481E+001
-1.1270459E+000	-5.862199887633295E+000	1.200589969670546E+001
-1.1280899E+000	-5.956832556294088E+000	1.202269969628105E+001
-1.1290575E+000	-6.046555608212941E+000	1.203929969586170E+001
-1.1300144E+000	-6.136118916405561E+000	1.205589969544235E+001
-1.1310582E+000	-6.227132821248633E+000	1.207269969501795E+001
-1.1320442E+000	-6.316584952308041E+000	1.208929969459859E+001
-1.1330395E+000	-6.405405631429588E+000	1.210589969417924E+001
-1.1340411E+000	-6.495456968380338E+000	1.212269969375484E+001
-1.1350900E+000	-6.584417009817258E+000	1.213929969333549E+001
-1.1360432E+000	-6.673440909551225E+000	1.215589969291614E+001
-1.1370864E+000	-6.763594702714009E+000	1.217269969249173E+001
-1.1380497E+000	-6.854041194584624E+000	1.218929969207238E+001
-1.1390660E+000	-6.941963804496652E+000	1.220589969165303E+001
-1.1400510E+000	-7.030637857317892E+000	1.222269969122863E+001
-1.1410731E+000	-7.118907128373792E+000	1.223929969080928E+001
-1.1420883E+000	-7.207035363846316E+000	1.225589969038992E+001
-1.1430757E+000	-7.296582562194928E+000	1.227269968996552E+001
-1.1440290E+000	-7.385596299072089E+000	1.228929968954617E+001
-1.1450436E+000	-7.476011098888165E+000	1.230589968912682E+001
-1.1460730E+000	-7.564740271766986E+000	1.232269968870241E+001
-1.1470252E+000	-7.652659674518603E+000	1.233929968828306E+001
-1.1480440E+000	-7.740457469357359E+000	1.235589968786371E+001
-1.1490395E+000	-7.829490062991738E+000	1.237269968743931E+001
-1.1500326E+000	-7.917558104958793E+000	1.238929968701996E+001
-1.1510258E+000	-8.004304012887999E+000	1.240589968660061E+001
-1.1520613E+000	-8.093917724192153E+000	1.242269968617620E+001
-1.1530730E+000	-8.181351767116119E+000	1.243929968575685E+001
-1.1540725E+000	-8.269423250655322E+000	1.245589968533750E+001
-1.1550279E+000	-8.357594022187982E+000	1.247269968491310E+001
-1.1560278E+000	-8.444013994071270E+000	1.248929968449374E+001
-1.1570510E+000	-8.531258404023120E+000	1.250589968407439E+001
-1.1580675E+000	-8.618395248684664E+000	1.252269968364999E+001
-1.1590766E+000	-8.704620045059272E+000	1.253929968323064E+001
-1.1600882E+000	-8.791762624813458E+000	1.255589968281129E+001
-1.1610862E+000	-8.878545567227732E+000	1.257269968238688E+001
-1.1620626E+000	-8.964383267925854E+000	1.258929968196753E+001
-1.1630830E+000	-9.050628477434259E+000	1.260589968154818E+001
-1.1640702E+000	-9.137789677182852E+000	1.262269968112378E+001
-1.1650273E+000	-9.223371452656075E+000	1.263929968070443E+001
-1.1660626E+000	-9.309208031429186E+000	1.265589968028507E+001
-1.1670607E+000	-9.397002342210897E+000	1.267269967986067E+001
-1.1680390E+000	-9.483099452389638E+000	1.268929967944132E+001
-1.1690041E+000	-9.569373235901182E+000	1.270589967902197E+001
-1.1700194E+000	-9.658196486896930E+000	1.272269967859756E+001
-1.1710284E+000	-9.743281031217862E+000	1.273929967817821E+001
-1.1719911E+000	-9.828206457826838E+000	1.275589967775886E+001
-1.1730623E+000	-9.915529225137503E+000	1.277269967733446E+001
-1.1740092E+000	-1.000082325445284E+001	1.278929967691511E+001
-1.1750236E+000	-1.008604297896227E+001	1.280589967649576E+001
-1.1760306E+000	-1.017287286500138E+001	1.282269967607135E+001
-1.1770152E+000	-1.025765196614790E+001	1.283929967565200E+001
-1.1780456E+000	-1.034315292576417E+001	1.285599967523012E+001
-1.1790340E+000	-1.042927435391478E+001	1.287269967480825E+001
-1.1800498E+000	-1.051441164149176E+001	1.288929967438889E+001
-1.1810479E+000	-1.060019401062214E+001	1.290599967396702E+001
-1.1820557E+000	-1.068546247475678E+001	1.292269967354514E+001
-1.1830809E+000	-1.076939319398666E+001	1.293929967312579E+001
-1.1840557E+000	-1.085430892798634E+001	1.295609967270138E+001
-1.1850352E+000	-1.093853544884252E+001	1.297269967228203E+001
-1.1869249E+000	-1.108097871177725E+001	1.300429967148375E+001
-1.1888672E+000	-1.123655422316656E+001	1.303609967068041E+001
-1.1898245E+000	-1.132141324434012E+001	1.305269967026106E+001
-1.1908060E+000	-1.140578493528898E+001	1.306929966984171E+001
-1.1918219E+000	-1.149063129285972E+001	1.308609966941731E+001
-1.1928254E+000	-1.157608961191440E+001	1.310269966899796E+001
-1.1938360E+000	-1.165888865821886E+001	1.311929966857861E+001
-1.1948285E+000	-1.174252134945657E+001	1.313609966815420E+001
-1.1958294E+000	-1.182763472431236E+001	1.315269966773485E+001
-1.1968262E+000	-1.191012626833381E+001	1.316929966731550E+001
-1.1978153E+000	-1.199308503720498E+001	1.318609966689110E+001
-1.1987851E+000	-1.207778226157026E+001	1.320269966647174E+001
-1.1998175E+000	-1.215985292911529E+001	1.321929966605239E+001
-1.2008367E+000	-1.224344644109406E+001	1.323609966562799E+001
-1.2013667E+000	-1.229257202148438E+001	1.324399966542842E+001
-1.2012329E+000	-1.228509902954102E+001	1.324579966538295E+001
-1.2006791E+000	-1.225078525549841E+001	1.325489966515306E+001
-1.1997110E+000	-1.219436478283670E+001	1.327149966473371E+001
-1.1986814E+000	-1.213240042295720E+001	1.328829966430931E+001
-1.1977022E+000	-1.207195853425400E+001	1.330489966388996E+001
-1.1967690E+000	-1.201135522875518E+001	1.332149966347060E+001
-1.1957163E+000	-1.195060423016547E+001	1.333829966304620E+001
-1.1947488E+000	-1.188868952916715E+001	1.335489966262685E+001
-1.1937214E+000	-1.182689803289043E+001	1.337149966220750E+001
-1.1927155E+000	-1.176104896008965E+001	1.338829966178309E+001
-1.1917237E+000	-1.169888966242469E+001	1.340489966136374E+001
-1.1907367E+000	-1.163490373392894E+001	1.342149966094439E+001
-1.1896930E+000	-1.157107805583206E+001	1.343829966051999E+001
-1.1887008E+000	-1.150847438580460E+001	1.345489966010064E+001
-1.1877279E+000	-1.144176663769616E+001	1.347149965968129E+001
-1.1867218E+000	-1.137492335173812E+001	1.348829965925688E+001
-1.1856986E+000	-1.131073741608192E+001	1.350489965883753E+001
-1.1846702E+000	-1.124548423820067E+001	1.352149965841818E+001
-1.1837465E+000	-1.118201689322777E+001	1.353829965799378E+001
-1.1827170E+000	-1.111466455678146E+001	1.355489965757442E+001
-1.1817052E+000	-1.105042369029764E+001	1.357159965715255E+001
-1.1807436E+000	-1.098191963308392E+001	1.358829965673067E+001
-1.1797069E+000	-1.091932441208101E+001	1.360489965631132E+001
-1.1787291E+000	-1.085283581488662E+001	1.362169965588691E+001
-1.1777471E+000	-1.079186231573422E+001	1.363829965546756E+001
-1.1767693E+000	-1.072860379755502E+001	1.365489965504821E+001
-1.1757560E+000	-1.066409861269565E+001	1.367159965462633E+001
-1.1747409E+000	-1.060153506742580E+001	1.368829965420446E+001
-1.1737285E+000	-1.053988179471759E+001	1.370489965378511E+001
-1.1727353E+000	-1.048492549923627E+001	1.372159965336323E+001
-1.1717616E+000	-1.043042494124839E+001	1.373829965294135E+001
-1.1707734E+000	-1.037832881814902E+001	1.375489965252200E+001
-1.1697415E+000	-1.033844622345396E+001	1.377159965210012E+001
-1.1687410E+000	-1.028497189640996E+001	1.378829965167824E+001
-1.1677376E+000	-1.014147846539816E+001	1.380489965125889E+001
-1.1668079E+000	-9.999849782784736E+000	1.382169965083449E+001
-1.1657170E+000	-9.887054596145973E+000	1.383829965041514E+001
-1.1647551E+000	-9.793668308092464E+000	1.385489964999579E+001
-1.1637378E+000	-9.719851717717134E+000	1.387169964957138E+001
-1.1627687E+000	-9.654670628971566E+000	1.388829964915203E+001
-1.1617812E+000	-9.591057535741044E+000	1.390489964873268E+001
-1.1607410E+000	-9.522645065089037E+000	1.392169964830828E+001
-1.1597093E+000	-9.453807792133738E+000	1.393829964788893E+001
-1.1587534E+000	-9.392447763118497E+000	1.395489964746957E+001
-1.1577594E+000	-9.334057296183403E+000	1.397169964704517E+001
-1.1567222E+000	-9.275487891733629E+000	1.398829964662582E+001
-1.1557845E+000	-9.216986198888890E+000	1.400489964620647E+001
-1.1547306E+000	-9.142047805488097E+000	1.402169964578206E+001
-1.1537490E+000	-9.056516604324177E+000	1.403829964536271E+001
-1.1526831E+000	-8.947449982298792E+000	1.405489964494336E+001
-1.1517234E+000	-8.844863712224708E+000	1.407169964451896E+001
-1.1507229E+000	-8.790753470096327E+000	1.408829964409961E+001
-1.1497272E+000	-8.739525844454793E+000	1.410489964368026E+001
-1.1486560E+000	-8.682482824855391E+000	1.412169964325585E+001
-1.1477156E+000	-8.623975291947488E+000	1.413829964283650E+001
-1.1466784E+000	-8.559563610520604E+000	1.415489964241715E+001
-1.1457143E+000	-8.495059335894098E+000	1.417169964199275E+001
-1.1447698E+000	-8.440968963901213E+000	1.418829964157339E+001
-1.1437203E+000	-8.398557655546409E+000	1.420489964115404E+001
-1.1427163E+000	-8.342363917297746E+000	1.422169964072964E+001
-1.1417497E+000	-8.280467014842582E+000	1.423829964031029E+001
-1.1407367E+000	-8.216687449647338E+000	1.425489963989094E+001
-1.1397446E+000	-8.150330594579398E+000	1.427169963946653E+001
-1.1387293E+000	-8.082755197319727E+000	1.428829963904718E+001
-1.1377907E+000	-8.016341975298147E+000	1.430489963862783E+001
-1.1367052E+000	-7.947520779768627E+000	1.432169963820343E+001
-1.1357309E+000	-7.879888544877368E+000	1.433829963778408E+001
-1.1347371E+000	-7.810508275296934E+000	1.435489963736472E+001
-1.1337198E+000	-7.742036818928209E+000	1.437169963694032E+001
-1.1327343E+000	-7.673337674703859E+000	1.438829963652097E+001
-1.1317333E+000	-7.604353153308239E+000	1.440489963610162E+001
-1.1307269E+000	-7.534507783618270E+000	1.442169963567721E+001
-1.1297495E+000	-7.465515106519039E+000	1.443829963525786E+001
-1.1287585E+000	-7.397037717534459E+000	1.445489963483851E+001
-1.1277699E+000	-7.328388013011875E+000	1.447169963441411E+001
-1.1267542E+000	-7.259353216588501E+000	1.448829963399476E+001
-1.1257505E+000	-7.185606052610613E+000	1.450489963357541E+001
-1.1247355E+000	-7.115991408526895E+000	1.452169963315100E+001
-1.1237222E+000	-7.047609389622998E+000	1.453829963273165E+001
-1.1226772E+000	-6.977560477058081E+000	1.455489963231230E+001
-1.1217228E+000	-6.907088115447067E+000	1.457169963188790E+001
-1.1207180E+000	-6.836557889613843E+000	1.458829963146854E+001
-1.1197265E+000	-6.769022264546805E+000	1.460489963104919E+001
-1.1187212E+000	-6.698820870319977E+000	1.462169963062479E+001
-1.1177117E+000	-6.627430091533427E+000	1.463829963020544E+001
-1.1167300E+000	-6.559230226476956E+000	1.465489962978609E+001
-1.1156588E+000	-6.488271061181990E+000	1.467169962936168E+001
-1.1147184E+000	-6.419919428626685E+000	1.468829962894233E+001
-1.1137042E+000	-6.350339964065270E+000	1.470489962852298E+001
-1.1127068E+000	-6.280902327696481E+000	1.472169962809858E+001
-1.1116951E+000	-6.210556366940338E+000	1.473829962767923E+001
-1.1106883E+000	-6.138140133917325E+000	1.475489962725987E+001
-1.1097378E+000	-6.069215365979396E+000	1.477169962683547E+001
-1.1087339E+000	-5.999382599128623E+000	1.478829962641612E+001
-1.1076913E+000	-5.929180400139728E+000	1.480489962599677E+001
-1.1066909E+000	-5.858965423901855E+000	1.482169962557236E+001
-1.1057314E+000	-5.790790730781040E+000	1.483829962515301E+001
-1.1047194E+000	-5.720404530432475E+000	1.485489962473366E+001
-1.1037239E+000	-5.649518981079254E+000	1.487169962430926E+001
-1.1027739E+000	-5.579615613983725E+000	1.488829962388991E+001
-1.1017175E+000	-5.508893739084400E+000	1.490489962347056E+001
-1.1007071E+000	-5.438647283779235E+000	1.492169962304615E+001
-1.0997374E+000	-5.369124831524111E+000	1.493829962262680E+001
-1.0987432E+000	-5.299101897709924E+000	1.495489962220745E+001
-1.0976762E+000	-5.228510187698731E+000	1.497169962178305E+001
-1.0966856E+000	-5.157277557485640E+000	1.498829962136369E+001
-1.0957046E+000	-5.086946571171303E+000	1.500489962094434E+001
-1.0947148E+000	-5.016396891872098E+000	1.502169962051994E+001
-1.0936918E+000	-4.949014430708388E+000	1.503829962010059E+001
-1.0927150E+000	-4.879354606519158E+000	1.505489961968124E+001
-1.0916358E+000	-4.808756619426916E+000	1.507169961925683E+001
-1.0907151E+000	-4.738870031254166E+000	1.508829961883748E+001
-1.0896990E+000	-4.668783973770019E+000	1.510489961841813E+001
-1.0886937E+000	-4.596466863701721E+000	1.512169961799373E+001
-1.0876805E+000	-4.528650229308347E+000	1.513829961757438E+001
-1.0866697E+000	-4.458354957898460E+000	1.515489961715502E+001
-1.0857085E+000	-4.389553823024016E+000	1.517169961673062E+001
-1.0847108E+000	-4.320510304619866E+000	1.518829961631127E+001
-1.0837125E+000	-4.250855095171261E+000	1.520489961589192E+001
-1.0817742E+000	-4.140956049842998E+000	1.523669961508858E+001
-1.0799336E+000	-4.027085879262948E+000	1.526829961429030E+001
-1.0789545E+000	-3.957315589305423E+000	1.528489961387095E+001
-1.0779361E+000	-3.887262251526110E+000	1.530169961344654E+001
-1.0769539E+000	-3.818559894081625E+000	1.531829961302719E+001
-1.0759466E+000	-3.749104991091617E+000	1.533489961260784E+001
-1.0749141E+000	-3.679393840862645E+000	1.535169961218344E+001
-1.0739388E+000	-3.610835409313431E+000	1.536829961176409E+001
-1.0729054E+000	-3.541232103937204E+000	1.538489961134474E+001
-1.0719320E+000	-3.471844435532875E+000	1.540169961092033E+001
-1.0709250E+000	-3.403330299539684E+000	1.541829961050098E+001
-1.0699198E+000	-3.334876201483937E+000	1.543489961008163E+001
-1.0689328E+000	-3.265305104884838E+000	1.545169960965723E+001
-1.0679333E+000	-3.197619969811701E+000	1.546829960923787E+001
-1.0669113E+000	-3.129209127045343E+000	1.548489960881852E+001
-1.0659230E+000	-3.059746927022928E+000	1.550169960839412E+001
-1.0649549E+000	-2.991842834833598E+000	1.551829960797477E+001
-1.0639617E+000	-2.924244744976377E+000	1.553489960755542E+001
-1.0629165E+000	-2.854832669413751E+000	1.555169960713101E+001
-1.0619202E+000	-2.787186536242551E+000	1.556829960671166E+001
-1.0609903E+000	-2.719823999388339E+000	1.558489960629231E+001
-1.0599051E+000	-2.650729664431684E+000	1.560169960586791E+001
-1.0589603E+000	-2.583625656167669E+000	1.561829960544856E+001
-1.0579287E+000	-2.516435098863308E+000	1.563489960502920E+001
-1.0569457E+000	-2.447907730365802E+000	1.565169960460480E+001
-1.0559404E+000	-2.381361689575836E+000	1.566829960418545E+001
-1.0549452E+000	-2.314438623901875E+000	1.568489960376610E+001
-1.0539310E+000	-2.247140804164928E+000	1.570169960334169E+001
-1.0529301E+000	-2.180497359840405E+000	1.571829960292234E+001
-1.0519415E+000	-2.113868508388602E+000	1.573489960250299E+001
-1.0509551E+000	-2.046936545314065E+000	1.575169960207859E+001
-1.0499496E+000	-1.980778354100055E+000	1.576829960165924E+001
-1.0489224E+000	-1.913885783760080E+000	1.578489960123989E+001
-1.0479344E+000	-1.847312369661200E+000	1.580169960081548E+001
-1.0468895E+000	-1.781234788306886E+000	1.581829960039613E+001
-1.0459332E+000	-1.716356128338312E+000	1.583489959997678E+001
-1.0449251E+000	-1.650821742291249E+000	1.585169959955238E+001
-1.0439025E+000	-1.585691439815686E+000	1.586829959913302E+001
-1.0429032E+000	-1.522050365515879E+000	1.588489959871367E+001
-1.0419250E+000	-1.457624562250244E+000	1.590169959828927E+001
-1.0409344E+000	-1.393372707838815E+000	1.591829959786992E+001
-1.0399315E+000	-1.330133840226470E+000	1.593489959745057E+001
-1.0388609E+000	-1.266386211506187E+000	1.595169959702616E+001
-1.0379233E+000	-1.203753114913900E+000	1.596829959660681E+001
-1.0369449E+000	-1.141476882311205E+000	1.598489959618746E+001
-1.0359341E+000	-1.079288214503059E+000	1.600169959576306E+001
-1.0349100E+000	-1.018400545405846E+000	1.601829959534371E+001
-1.0339266E+000	-9.573118085124435E-001	1.603489959492435E+001
-1.0329379E+000	-8.969922265120687E-001	1.605169959449995E+001
-1.0319399E+000	-8.378847020491929E-001	1.606829959408060E+001
-1.0309796E+000	-7.792159979335120E-001	1.608489959366125E+001
-1.0299498E+000	-7.212860196539115E-001	1.610169959323684E+001
-1.0289361E+000	-6.649242907679760E-001	1.611829959281749E+001
-1.0279378E+000	-6.088810286546700E-001	1.613489959239814E+001
-1.0269848E+000	-5.539424644472746E-001	1.615169959197374E+001
-1.0259540E+000	-5.011050062750764E-001	1.616829959155439E+001
-1.0249711E+000	-4.492424949713874E-001	1.618489959113504E+001
-1.0239407E+000	-3.987698504328718E-001	1.620169959071063E+001
-1.0229534E+000	-3.506652226009308E-001	1.621829959029128E+001
-1.0219593E+000	-3.045636789790471E-001	1.623489958987193E+001
-1.0200310E+000	-2.270913667314587E-001	1.626669958906859E+001
-1.0181462E+000	-1.572090940513755E-001	1.629829958827031E+001
-1.0171607E+000	-1.253453178465780E-001	1.631489958785096E+001
-1.0162054E+000	-9.654682074569987E-002	1.633169958742656E+001
-1.0151718E+000	-7.114912710333665E-002	1.634829958700720E+001
-1.0141844E+000	-4.942046058183114E-002	1.636489958658785E+001
-1.0131363E+000	-3.054366304927195E-002	1.638169958616345E+001
-1.0121571E+000	-1.381569150191757E-002	1.639829958574410E+001
-1.0111606E+000	1.113236695182426E-003	1.641489958532475E+001
-1.0101646E+000	1.568682268242505E-002	1.643169958490034E+001
-1.0091619E+000	3.097442981489534E-002	1.644829958448099E+001
-1.0081722E+000	4.765091176248265E-002	1.646489958406164E+001
-1.0071790E+000	6.697735316792730E-002	1.648169958363724E+001
-1.0061315E+000	8.890514523153059E-002	1.649829958321789E+001
-1.0051618E+000	1.143714428325704E-001	1.651489958279853E+001
-1.0041757E+000	1.431098864258579E-001	1.653169958237413E+001
-1.0031582E+000	1.747720506590682E-001	1.654829958195478E+001
-1.0021954E+000	2.102381729862348E-001	1.656489958153543E+001
-1.0011255E+000	2.489864085045553E-001	1.658169958111102E+001
-1.0001739E+000	2.903195023598777E-001	1.659829958069167E+001
-9.9918628E-001	3.349966261204722E-001	1.661489958027232E+001
-9.9813354E-001	3.829669097852380E-001	1.663169957984792E+001
-9.9714535E-001	4.335229619219891E-001	1.664829957942857E+001
-9.9614537E-001	4.865498837828636E-001	1.666489957900922E+001
-9.9516803E-001	5.419141067523089E-001	1.668169957858481E+001
-9.9418020E-001	5.989675252656941E-001	1.669829957816546E+001
-9.9312198E-001	6.583222238885043E-001	1.671489957774611E+001
-9.9214429E-001	7.196322480464961E-001	1.673169957732171E+001
-9.9117190E-001	7.815986203153931E-001	1.674829957690235E+001
-9.9016082E-001	8.452139002001964E-001	1.676489957648300E+001
-9.8915648E-001	9.111508670242290E-001	1.678169957605860E+001
-9.8813665E-001	9.771961755471104E-001	1.679829957563925E+001
-9.8718894E-001	1.043622550533883E+000	1.681489957521990E+001
-9.8525697E-001	1.176292393278706E+000	1.684669957441656E+001
-9.8337370E-001	1.309951007755274E+000	1.687829957361828E+001
-9.8239976E-001	1.378989967803172E+000	1.689489957319893E+001
-9.8138243E-001	1.449770455054116E+000	1.691169957277452E+001
-9.8036653E-001	1.519809803979260E+000	1.692829957235517E+001
-9.7937733E-001	1.590389528680184E+000	1.694489957193582E+001
-9.7838688E-001	1.661553618907932E+000	1.696169957151142E+001
-9.7741079E-001	1.732267798259851E+000	1.697829957109207E+001
-9.7637916E-001	1.803976866776749E+000	1.699489957067271E+001
-9.7537947E-001	1.875840368237768E+000	1.701169957024831E+001
-9.7438037E-001	1.947069845969480E+000	1.702829956982896E+001
-9.7336227E-001	2.019208428901107E+000	1.704489956940961E+001
-9.7238851E-001	2.091874009966844E+000	1.706169956898520E+001
-9.7135144E-001	2.163518962139882E+000	1.707829956856585E+001
-9.7041839E-001	2.236053923898277E+000	1.709489956814650E+001
-9.6937299E-001	2.308403190275030E+000	1.711169956772210E+001
-9.6840829E-001	2.380279746163225E+000	1.712829956730275E+001
-9.6735811E-001	2.453242844997185E+000	1.714489956688340E+001
-9.6638483E-001	2.525528430458571E+000	1.716169956645899E+001
-9.6539879E-001	2.597006501257415E+000	1.717829956603964E+001
-9.6438235E-001	2.669249237146630E+000	1.719489956562029E+001
-9.6336609E-001	2.742159138040418E+000	1.721169956519589E+001
-9.6242207E-001	2.814305333660716E+000	1.722829956477653E+001
-9.6135682E-001	2.886173610703807E+000	1.724489956435718E+001
-9.6037185E-001	2.959868229677294E+000	1.726169956393278E+001
-9.5939195E-001	3.031484591828454E+000	1.727829956351343E+001
-9.5839089E-001	3.102946256481941E+000	1.729489956309408E+001
-9.5740813E-001	3.175932724177848E+000	1.731169956266967E+001
-9.5638132E-001	3.247627996520869E+000	1.732829956225032E+001
-9.5537835E-001	3.319334104028023E+000	1.734489956183097E+001
-9.5439124E-001	3.392557569824980E+000	1.736169956140657E+001
-9.5340002E-001	3.463232317682778E+000	1.737829956098722E+001
-9.5238131E-001	3.533713457783051E+000	1.739489956056786E+001
-9.5136809E-001	3.606255273951428E+000	1.741169956014346E+001
-9.5035678E-001	3.676701790144048E+000	1.742829955972411E+001
-9.4937849E-001	3.747436662316318E+000	1.744489955930476E+001
-9.4837528E-001	3.818860620458914E+000	1.746169955888035E+001
-9.4736606E-001	3.888471494317052E+000	1.747829955846100E+001
-9.4636273E-001	3.959888032294003E+000	1.749489955804165E+001
-9.4536394E-001	4.030231583582022E+000	1.751169955761725E+001
-9.4436699E-001	4.100115867389576E+000	1.752829955719790E+001
-9.4335425E-001	4.170060197512303E+000	1.754489955677855E+001
-9.4237387E-001	4.240852254248310E+000	1.756169955635414E+001
-9.4137400E-001	4.311689246926051E+000	1.757829955593479E+001
-9.4035906E-001	4.381646693332328E+000	1.759489955551544E+001
-9.3938357E-001	4.452740188605246E+000	1.761169955509104E+001
-9.3838972E-001	4.524864660369029E+000	1.762829955467168E+001
-9.3739718E-001	4.595885508507493E+000	1.764489955425233E+001
-9.3638629E-001	4.667923527442753E+000	1.766169955382793E+001
-9.3536234E-001	4.739912299596597E+000	1.767829955340858E+001
-9.3437248E-001	4.810683452321456E+000	1.769489955298923E+001
-9.3335837E-001	4.882868835396231E+000	1.771169955256482E+001
-9.3240249E-001	4.954760739207273E+000	1.772829955214547E+001
-9.3139064E-001	5.026044453779882E+000	1.774489955172612E+001
-9.3039620E-001	5.098905180030414E+000	1.776169955130172E+001
-9.2939532E-001	5.171086357004118E+000	1.777829955088237E+001
-9.2839050E-001	5.243566139207971E+000	1.779489955046301E+001
-9.2740315E-001	5.315887984799016E+000	1.781169955003861E+001
-9.2638606E-001	5.386900817354508E+000	1.782829954961926E+001
-9.2535985E-001	5.458854614794276E+000	1.784489954919991E+001
-9.2436224E-001	5.530502651863628E+000	1.786169954877550E+001
-9.2337072E-001	5.600297792918170E+000	1.787829954835615E+001
-9.2238367E-001	5.671430693036989E+000	1.789489954793680E+001
-9.2135644E-001	5.743403487834662E+000	1.791169954751240E+001
-9.2031932E-001	5.816238056752425E+000	1.792829954709305E+001
-9.1935855E-001	5.888069079452094E+000	1.794489954667370E+001
-9.1832566E-001	5.961618365711644E+000	1.796169954624929E+001
-9.1736090E-001	6.033881858223040E+000	1.797829954582994E+001
-9.1636091E-001	6.103474783400699E+000	1.799489954541059E+001
-9.1537863E-001	6.173132591380025E+000	1.801169954498619E+001
-9.1435421E-001	6.242985015147241E+000	1.802829954456683E+001
-9.1335434E-001	6.311784920030249E+000	1.804489954414748E+001
-9.1235077E-001	6.381152094105872E+000	1.806169954372308E+001
-9.1134089E-001	6.449811100098849E+000	1.807829954330373E+001
-9.1040105E-001	6.520059359305435E+000	1.809489954288438E+001
-9.0934652E-001	6.594469465050423E+000	1.811169954245997E+001
-9.0833187E-001	6.667412033908903E+000	1.812829954204062E+001
-9.0737385E-001	6.740497424039560E+000	1.814489954162127E+001
-9.0629202E-001	6.816549220879864E+000	1.816169954119687E+001
-9.0530437E-001	6.895873165859101E+000	1.817829954077752E+001
-9.0433669E-001	6.983777545028275E+000	1.819489954035816E+001
-9.0334737E-001	7.073771466679042E+000	1.821169953993376E+001
-9.0234590E-001	7.157214278048961E+000	1.822829953951441E+001
-9.0132833E-001	7.236641221278234E+000	1.824489953909506E+001
-9.0034419E-001	7.315793102416748E+000	1.826169953867065E+001
-8.9935714E-001	7.391888860563427E+000	1.827829953825130E+001
-8.9835358E-001	7.467463360263253E+000	1.829489953783195E+001
-8.9731193E-001	7.542948243882937E+000	1.831169953740755E+001
-8.9631128E-001	7.616884934769757E+000	1.832829953698820E+001
-8.9532810E-001	7.691237285203428E+000	1.834489953656885E+001
-8.9436114E-001	7.764000742236760E+000	1.836169953614444E+001
-8.9333594E-001	7.836278606719446E+000	1.837829953572509E+001
-8.9234990E-001	7.908033273021374E+000	1.839489953530574E+001
-8.9132851E-001	7.980315197673177E+000	1.841169953488134E+001
-8.9036727E-001	8.052299679219729E+000	1.842829953446198E+001
-8.8937771E-001	8.122005555232398E+000	1.844489953404263E+001
-8.8835466E-001	8.192240532371699E+000	1.846169953361823E+001
-8.8738209E-001	8.262455109688958E+000	1.847829953319888E+001
-8.8635761E-001	8.332233229113925E+000	1.849489953277953E+001
-8.8531488E-001	8.403052477803499E+000	1.851169953235512E+001
-8.8433546E-001	8.472381961047660E+000	1.852829953193577E+001
-8.8336670E-001	8.540970239606224E+000	1.854489953151642E+001
-8.8233268E-001	8.609594328668383E+000	1.856169953109202E+001
-8.8135880E-001	8.677793011731580E+000	1.857829953067267E+001
-8.8038033E-001	8.746616368393104E+000	1.859489953025331E+001
-8.7934601E-001	8.815490893556074E+000	1.861169952982891E+001
-8.7830174E-001	8.882829684681367E+000	1.862829952940956E+001
-8.7734014E-001	8.949697345329625E+000	1.864489952899021E+001
-8.7634152E-001	9.016062340339033E+000	1.866169952856580E+001
-8.7534797E-001	9.081784018973465E+000	1.867829952814645E+001
-8.7432802E-001	9.149401815930986E+000	1.869489952772710E+001
-8.7339592E-001	9.216039773391387E+000	1.871169952730270E+001
-8.7231129E-001	9.281293334927852E+000	1.872829952688335E+001
-8.7135410E-001	9.346542422307834E+000	1.874489952646400E+001
-8.7035948E-001	9.411350401110113E+000	1.876169952603959E+001
-8.6935300E-001	9.475878375073250E+000	1.877829952562024E+001
-8.6839062E-001	9.540389764573803E+000	1.879489952520089E+001
-8.6738956E-001	9.604621094365925E+000	1.881169952477649E+001
-8.6640817E-001	9.667891837921417E+000	1.882829952435713E+001
-8.6535788E-001	9.729948502911384E+000	1.884489952393778E+001
-8.6437994E-001	9.792756620248099E+000	1.886169952351338E+001
-8.6333442E-001	9.853722161451941E+000	1.887829952309403E+001
-8.6234874E-001	9.914647672375054E+000	1.889489952267468E+001
-8.6136913E-001	9.975863764948343E+000	1.891169952225027E+001
-8.6039293E-001	1.003541888084683E+001	1.892829952183092E+001
-8.5935700E-001	1.009460241986646E+001	1.894489952141157E+001
-8.5838360E-001	1.015501310116717E+001	1.896169952098717E+001
-8.5736388E-001	1.021270544615052E+001	1.897829952056782E+001
-8.5634005E-001	1.027023090110882E+001	1.899489952014846E+001
-8.5536462E-001	1.032754626896649E+001	1.901169951972406E+001
-8.5439038E-001	1.038335909227528E+001	1.902829951930471E+001
-8.5341132E-001	1.043907789329683E+001	1.904489951888536E+001
-8.5234201E-001	1.049451694693829E+001	1.906169951846096E+001
-8.5137373E-001	1.054753994504611E+001	1.907829951804160E+001
-8.5040569E-001	1.059920533524621E+001	1.909489951762225E+001
-8.4937030E-001	1.065092235061857E+001	1.911169951719785E+001
-8.4838480E-001	1.070264748579928E+001	1.912829951677850E+001
-8.4737211E-001	1.075397992438744E+001	1.914489951635915E+001
-8.4637302E-001	1.080354576971793E+001	1.916169951593474E+001
-8.4536719E-001	1.085173309253321E+001	1.917829951551539E+001
-8.4441316E-001	1.089888983044361E+001	1.919489951509604E+001
-8.4336174E-001	1.094502353900010E+001	1.921169951467164E+001
-8.4150207E-001	1.104812017700661E+001	1.924329951387335E+001
-8.3954406E-001	1.115210894491939E+001	1.927489951307507E+001
-8.3853930E-001	1.119067705922660E+001	1.929169951265067E+001
-8.3757907E-001	1.122689099762184E+001	1.930829951223132E+001
-8.3652878E-001	1.126142553640730E+001	1.932489951181196E+001
-8.3554935E-001	1.129587735474108E+001	1.934169951138756E+001
-8.3454764E-001	1.133083505113913E+001	1.935829951096821E+001
-8.3354974E-001	1.135933065460785E+001	1.937489951054886E+001
-8.3252865E-001	1.138752623114317E+001	1.939169951012445E+001
-8.3154052E-001	1.141109876513485E+001	1.940829950970510E+001
-8.3055222E-001	1.143537212914889E+001	1.942489950928575E+001
-8.2957375E-001	1.145626461704576E+001	1.944169950886135E+001
-8.2856131E-001	1.147148907787272E+001	1.945829950844200E+001
-8.2752973E-001	1.148650720397630E+001	1.947489950802265E+001
-8.2651991E-001	1.150004138370355E+001	1.949169950759824E+001
-8.2558608E-001	1.150573527687131E+001	1.950829950717889E+001
-8.2456833E-001	1.150943409164748E+001	1.952489950675954E+001
-8.2355165E-001	1.151195759110985E+001	1.954169950633514E+001
-8.2256889E-001	1.150856474293603E+001	1.955829950591578E+001
-8.2159466E-001	1.150348294350840E+001	1.957489950549643E+001
-8.2053357E-001	1.149470620758007E+001	1.959169950507203E+001
-8.1954223E-001	1.147699297295682E+001	1.960829950465268E+001
-8.1854928E-001	1.145453095124832E+001	1.962489950423333E+001
-8.1751275E-001	1.142974931750034E+001	1.964169950380892E+001
-8.1647724E-001	1.140159246908297E+001	1.965829950338957E+001
-8.1549823E-001	1.137087996092107E+001	1.967489950297022E+001
-8.1453949E-001	1.133207245707519E+001	1.969169950254582E+001
-8.1353015E-001	1.128547381228876E+001	1.970829950212647E+001
-8.1254643E-001	1.123108817603847E+001	1.972489950170711E+001
-8.1152380E-001	1.116972507490047E+001	1.974169950128271E+001
-8.1050545E-001	1.110922848231269E+001	1.975829950086336E+001
-8.0950648E-001	1.104224386672175E+001	1.977489950044401E+001
-8.0850244E-001	1.096227282351920E+001	1.979169950001960E+001
-8.0749917E-001	1.087872332367640E+001	1.980829949960025E+001
-8.0653179E-001	1.079091433591312E+001	1.982489949918090E+001
-8.0552310E-001	1.068785216000347E+001	1.984169949875650E+001
-8.0455458E-001	1.057167876309819E+001	1.985829949833715E+001
-8.0354458E-001	1.044578492098387E+001	1.987489949791780E+001
-8.0253547E-001	1.030951810326840E+001	1.989169949749339E+001
-8.0154920E-001	1.016220553113354E+001	1.990829949707404E+001
-8.0053353E-001	9.991004465156152E+000	1.992489949665469E+001
-7.9954058E-001	9.813137578136377E+000	1.994169949623029E+001
-7.9855663E-001	9.622952876355953E+000	1.995829949581093E+001
-7.9752564E-001	9.426679856578545E+000	1.997489949539158E+001
-7.9656219E-001	9.194737230208162E+000	1.999169949496718E+001
-7.9556829E-001	8.973339121705969E+000	2.000829949454783E+001
-7.9458147E-001	8.731464495956885E+000	2.002489949412848E+001
-7.9354459E-001	8.467315907014751E+000	2.004169949370407E+001
-7.9255003E-001	8.215161483552706E+000	2.005829949328472E+001
-7.9153055E-001	7.941204935246056E+000	2.007489949286537E+001
-7.9054624E-001	7.664744285907979E+000	2.009169949244097E+001
-7.8953302E-001	7.400140051444396E+000	2.010829949202162E+001
-7.8853685E-001	7.146696381635110E+000	2.012489949160226E+001
-7.8748006E-001	6.920002547303838E+000	2.014169949117786E+001
-7.8652173E-001	6.699943771859012E+000	2.015829949075851E+001
-7.8554320E-001	6.482042799790713E+000	2.017489949033916E+001
-7.8455448E-001	6.287444423437080E+000	2.019169948991475E+001
-7.8355610E-001	6.104216747052163E+000	2.020829948949540E+001
-7.8254974E-001	5.929831304947513E+000	2.022489948907605E+001
-7.8153127E-001	5.769602917068568E+000	2.024169948865165E+001
-7.8049642E-001	5.601401906576427E+000	2.025829948823230E+001
-7.7955776E-001	5.444548540910084E+000	2.027489948781295E+001
-7.7850401E-001	5.314103235337512E+000	2.029169948738854E+001
-7.7754927E-001	5.191669724914732E+000	2.030829948696919E+001
-7.7654529E-001	5.065077481038060E+000	2.032489948654984E+001
-7.7555048E-001	4.928544409341271E+000	2.034169948612544E+001
-7.7457118E-001	4.798288568523191E+000	2.035829948570608E+001
-7.7354127E-001	4.681413024548021E+000	2.037489948528673E+001
-7.7254814E-001	4.576314763410210E+000	2.039169948486233E+001
-7.7157938E-001	4.464088148838954E+000	2.040829948444298E+001
-7.7054691E-001	4.322347991168485E+000	2.042489948402363E+001
-7.6954335E-001	4.242145612869002E+000	2.044169948359922E+001
-7.6762652E-001	4.048082278161154E+000	2.047329948280094E+001
-7.6577479E-001	3.846929209348225E+000	2.050489948200266E+001
-7.6471698E-001	3.763682590723055E+000	2.052169948157825E+001
-7.6378781E-001	3.687827171633650E+000	2.053829948115890E+001
-7.6273137E-001	3.604009962280593E+000	2.055489948073955E+001
-7.6175249E-001	3.546657288157277E+000	2.057169948031515E+001
-7.6074684E-001	3.470976800736459E+000	2.058829947989580E+001
-7.5975245E-001	3.419657412452839E+000	2.060489947947644E+001
-7.5874925E-001	3.366839999424101E+000	2.062169947905204E+001
-7.5775784E-001	3.301540306442313E+000	2.063829947863269E+001
-7.5674355E-001	3.247826984276372E+000	2.065489947821334E+001
-7.5576413E-001	3.196548273215697E+000	2.067169947778893E+001
-7.5480592E-001	3.132871726105627E+000	2.068829947736958E+001
-7.5378811E-001	3.063987217164705E+000	2.070489947695023E+001
-7.5277650E-001	3.010575391650207E+000	2.072169947652583E+001
-7.5181198E-001	2.957773060152938E+000	2.073829947610648E+001
-7.5077552E-001	2.903164206229992E+000	2.075489947568713E+001
-7.4982017E-001	2.850411618451272E+000	2.077169947526272E+001
-7.4881917E-001	2.775033545643097E+000	2.078829947484337E+001
-7.4779767E-001	2.698660456306413E+000	2.080489947442402E+001
-7.4679697E-001	2.653690014051072E+000	2.082169947399962E+001
-7.4581081E-001	2.618973172538794E+000	2.083829947358026E+001
-7.4480301E-001	2.581288135631223E+000	2.085489947316091E+001
-7.4382955E-001	2.537371392067933E+000	2.087169947273651E+001
-7.4277812E-001	2.498796941389637E+000	2.088829947231716E+001
-7.4176407E-001	2.458967999186797E+000	2.090489947189781E+001
-7.4076903E-001	2.404935141611434E+000	2.092169947147340E+001
-7.3976970E-001	2.384138975068929E+000	2.093829947105405E+001
-7.3873645E-001	2.354403126860667E+000	2.095489947063470E+001
-7.3777348E-001	2.312442188436791E+000	2.097169947021030E+001
-7.3674893E-001	2.282261998794127E+000	2.098829946979095E+001
-7.3574609E-001	2.247795709570241E+000	2.100489946937159E+001
-7.3475164E-001	2.200698168137009E+000	2.102169946894719E+001
-7.3377621E-001	2.156809019918228E+000	2.103829946852784E+001
-7.3276037E-001	2.129694122854190E+000	2.105489946810849E+001
-7.3178512E-001	2.100435408891904E+000	2.107169946768408E+001
-7.3075944E-001	2.074381315716433E+000	2.108829946726473E+001
-7.2979075E-001	2.019665428350372E+000	2.110489946684538E+001
-7.2878247E-001	1.980240814263627E+000	2.112169946642098E+001
-7.2778070E-001	1.956033926316433E+000	2.113829946600163E+001
-7.2678560E-001	1.915211348318401E+000	2.115489946558228E+001
-7.2579974E-001	1.868932714901037E+000	2.117169946515787E+001
-7.2475445E-001	1.842855177190572E+000	2.118829946473852E+001
-7.2375309E-001	1.825112219428032E+000	2.120489946431917E+001
-7.2273314E-001	1.829913262484806E+000	2.122169946389477E+001
-7.2179520E-001	1.808881825200380E+000	2.123829946347541E+001
-7.2077256E-001	1.767056694494358E+000	2.125489946305606E+001
-7.1977234E-001	1.746788064539437E+000	2.127169946263166E+001
-7.1875530E-001	1.727444060469671E+000	2.128829946221231E+001
-7.1780205E-001	1.697565761581068E+000	2.130489946179296E+001
-7.1675318E-001	1.680907301315006E+000	2.132169946136855E+001
-7.1571594E-001	1.671339803346331E+000	2.133829946094920E+001
-7.1467751E-001	1.634226454256308E+000	2.135489946052985E+001
-7.1369010E-001	1.629156992617581E+000	2.137169946010545E+001
-7.1274805E-001	1.602800016626719E+000	2.138829945968610E+001
-7.1170473E-001	1.573863875203666E+000	2.140489945926674E+001
-7.1072477E-001	1.544394556234284E+000	2.142169945884234E+001
-7.0974350E-001	1.528869615702162E+000	2.143829945842299E+001
-7.0873731E-001	1.501310559991332E+000	2.145489945800364E+001
-7.0775461E-001	1.488028974400626E+000	2.147169945757923E+001
-7.0674002E-001	1.483516233215735E+000	2.148829945715988E+001
-7.0575303E-001	1.465919105650652E+000	2.150489945674053E+001
-7.0472670E-001	1.437726941431560E+000	2.152169945631613E+001
-7.0376611E-001	1.444367586076261E+000	2.153829945589678E+001
-7.0274359E-001	1.429399804067280E+000	2.155489945547743E+001
-7.0174164E-001	1.406346976127878E+000	2.157169945505302E+001
-7.0075637E-001	1.385436567672429E+000	2.158829945463367E+001
-6.9974756E-001	1.379801708360510E+000	2.160489945421432E+001
-6.9876015E-001	1.383977485646806E+000	2.162169945378992E+001
-6.9779366E-001	1.354530613894262E+000	2.163829945337056E+001
-6.9676381E-001	1.331968922308747E+000	2.165489945295121E+001
-6.9575197E-001	1.326126418900159E+000	2.167169945252681E+001
-6.9474351E-001	1.290745969083577E+000	2.168829945210746E+001
-6.9379246E-001	1.276176139165958E+000	2.170489945168811E+001
-6.9273198E-001	1.269107092461648E+000	2.172169945126370E+001
-6.9177300E-001	1.232804925185111E+000	2.173829945084435E+001
-6.9074470E-001	1.210951198869282E+000	2.175489945042500E+001
-6.8973786E-001	1.195080744305420E+000	2.177169945000060E+001
-6.8874812E-001	1.191935336850580E+000	2.178829944958125E+001
-6.8770063E-001	1.158591367697548E+000	2.180489944916189E+001
-6.8671387E-001	1.144621353695786E+000	2.182169944873749E+001
-6.8571204E-001	1.137776618997257E+000	2.183829944831814E+001
-6.8475521E-001	1.127767632475326E+000	2.185489944789879E+001
-6.8368894E-001	1.108182684828840E+000	2.187169944747438E+001
-6.8274051E-001	1.098617593654332E+000	2.188829944705503E+001
-6.8170238E-001	1.081854198140398E+000	2.190489944663568E+001
-6.8072534E-001	1.064684365379311E+000	2.192169944621128E+001
-6.7972648E-001	1.049938608598385E+000	2.193829944579193E+001
-6.7872787E-001	1.069241285721459E+000	2.195489944537258E+001
-6.7777038E-001	1.061300455509780E+000	2.197169944494817E+001
-6.7677206E-001	1.059107524926462E+000	2.198829944452882E+001
-6.7573172E-001	1.058877991789750E+000	2.200489944410947E+001
-6.7474109E-001	1.048777652718119E+000	2.202169944368507E+001
-6.7371720E-001	1.032791281760572E+000	2.203829944326571E+001
-6.7275244E-001	1.005959533345369E+000	2.205489944284636E+001
-6.7169243E-001	1.005408496807020E+000	2.207169944242196E+001
-6.7073631E-001	9.926440031660908E-001	2.208829944200261E+001
-6.6972333E-001	9.712307054963407E-001	2.210489944158326E+001
-6.6875279E-001	9.642311721667696E-001	2.212169944115885E+001
-6.6776645E-001	9.559079794378746E-001	2.213829944073950E+001
-6.6672683E-001	9.450696788811044E-001	2.215489944032015E+001
-6.6574454E-001	9.354181482435955E-001	2.217169943989575E+001
-6.6474724E-001	9.089639768335565E-001	2.218829943947640E+001
-6.6375595E-001	8.965976198845480E-001	2.220489943905704E+001
-6.6274148E-001	8.850301246262244E-001	2.222169943863264E+001
-6.6172945E-001	8.914592880797056E-001	2.223829943821329E+001
-6.6077220E-001	8.724029319981756E-001	2.225489943779394E+001
-6.5973353E-001	8.621664735716248E-001	2.227169943736953E+001
-6.5881181E-001	8.460909756024690E-001	2.228829943695018E+001
-6.5779686E-001	8.426319252202896E-001	2.230489943653083E+001
-6.5676266E-001	8.506216861017881E-001	2.232169943610643E+001
-6.5574920E-001	8.336504752230298E-001	2.233829943568708E+001
-6.5476900E-001	8.347963902395659E-001	2.235489943526773E+001
-6.5376681E-001	8.222449404539353E-001	2.237169943484332E+001
-6.5278333E-001	8.077580450682200E-001	2.238829943442397E+001
-6.5174824E-001	7.917867420696592E-001	2.240489943400462E+001
-6.5074033E-001	8.006876954808853E-001	2.242169943358022E+001
-6.4980102E-001	8.033848760815125E-001	2.243829943316086E+001
-6.4877927E-001	7.972258354350927E-001	2.245489943274151E+001
-6.4777058E-001	7.873446813970819E-001	2.247169943231711E+001
-6.4678258E-001	7.941621674887021E-001	2.248829943189776E+001
-6.4576095E-001	7.812218884006175E-001	2.250489943147841E+001
-6.4474583E-001	7.599097036446132E-001	2.252169943105400E+001
-6.4373630E-001	7.608643449429060E-001	2.253829943063465E+001
-6.4280617E-001	7.524445827843440E-001	2.255489943021530E+001
-6.4177096E-001	7.382223027613448E-001	2.257169942979090E+001
-6.4074397E-001	7.392977121182653E-001	2.258829942937155E+001
-6.3975596E-001	7.503807787472994E-001	2.260489942895219E+001
-6.3872933E-001	7.625314251292128E-001	2.262169942852779E+001
-6.3773263E-001	7.645142539218064E-001	2.263829942810844E+001
-6.3676202E-001	7.565869802029610E-001	2.265489942768909E+001
-6.3572639E-001	7.605935451098631E-001	2.267169942726468E+001
-6.3478947E-001	7.470048425098224E-001	2.268829942684533E+001
-6.3374943E-001	7.355554404151086E-001	2.270489942642598E+001
-6.3275832E-001	7.221984222945261E-001	2.272169942600158E+001
-6.3176990E-001	7.126487221610187E-001	2.273829942558223E+001
-6.3077831E-001	7.207741551473763E-001	2.275489942516288E+001
-6.2971276E-001	7.228409071308053E-001	2.277169942473847E+001
-6.2876266E-001	7.287534508233300E-001	2.278829942431912E+001
-6.2772125E-001	7.300522535542644E-001	2.280489942389977E+001
-6.2671930E-001	7.269046832786659E-001	2.282169942347537E+001
-6.2574190E-001	7.015990729588610E-001	2.283829942305601E+001
-6.2472975E-001	6.847984229317983E-001	2.285489942263666E+001
-6.2373507E-001	6.539656482264422E-001	2.287169942221226E+001
-6.2272489E-001	6.505263875217882E-001	2.288829942179291E+001
-6.2173438E-001	6.510221123778130E-001	2.290489942137356E+001
-6.2070996E-001	6.523238059257448E-001	2.292169942094915E+001
-6.1976594E-001	6.591854890560125E-001	2.293829942052980E+001
-6.1872107E-001	6.507433968202925E-001	2.295489942011045E+001
-6.1774611E-001	6.359156001442035E-001	2.297169941968605E+001
-6.1675078E-001	6.318859747466092E-001	2.298829941926670E+001
-6.1578512E-001	6.383429355132932E-001	2.300489941884734E+001
-6.1472780E-001	6.378075711884446E-001	2.302169941842294E+001
-6.1374587E-001	6.400850447805408E-001	2.303829941800359E+001
-6.1275363E-001	6.466350422054514E-001	2.305489941758424E+001
-6.1174643E-001	6.529528753128346E-001	2.307169941715983E+001
-6.1077315E-001	6.378029032548262E-001	2.308829941674048E+001
-6.0979933E-001	6.353379194562621E-001	2.310489941632113E+001
-6.0878080E-001	6.191184320466387E-001	2.312169941589673E+001
-6.0775924E-001	6.099747712309949E-001	2.313829941547738E+001
-6.0679233E-001	5.902049688684459E-001	2.315489941505803E+001
-6.0576743E-001	5.772334625613311E-001	2.317169941463362E+001
-6.0475481E-001	5.815783473807876E-001	2.318829941421427E+001
-6.0377556E-001	5.719597476638034E-001	2.320489941379492E+001
-6.0273945E-001	5.685845709840454E-001	2.322169941337052E+001
-6.0176134E-001	5.694644344059965E-001	2.323829941295116E+001
-6.0079771E-001	5.516490647486503E-001	2.325489941253181E+001
-5.9974933E-001	5.437597086818666E-001	2.327169941210741E+001
-5.9877622E-001	5.390732141687629E-001	2.328829941168806E+001
-5.9780526E-001	5.432971427734508E-001	2.330489941126871E+001
-5.9677845E-001	5.439744885141646E-001	2.332169941084430E+001
-5.9581697E-001	5.555675286613440E-001	2.333829941042495E+001
-5.9480011E-001	5.547629435732961E-001	2.335489941000560E+001
-5.9380913E-001	5.579114662586830E-001	2.337169940958120E+001
-5.9276450E-001	5.459946804535019E-001	2.338829940916185E+001
-5.9179753E-001	5.333155014759168E-001	2.340489940874249E+001
-5.9078425E-001	5.405145287182590E-001	2.342169940831809E+001
-5.8981949E-001	5.256757710315298E-001	2.343829940789874E+001
-5.8875769E-001	5.305893694071333E-001	2.345489940747939E+001
-5.8774930E-001	5.428804920696546E-001	2.347169940705498E+001
-5.8678478E-001	5.465475583511097E-001	2.348829940663563E+001
-5.8579701E-001	5.518806848488786E-001	2.350489940621628E+001
-5.8476788E-001	5.410897267775425E-001	2.352169940579188E+001
-5.8378839E-001	5.387752199483442E-001	2.353829940537253E+001
-5.8273661E-001	5.262887086967645E-001	2.355489940495318E+001
-5.8176899E-001	5.219088250129595E-001	2.357169940452877E+001
-5.8077145E-001	5.151888762435164E-001	2.358829940410942E+001
-5.7975167E-001	5.079247999481047E-001	2.360489940369007E+001
-5.7876617E-001	4.921671542649486E-001	2.362169940326567E+001
-5.7776588E-001	4.907554263186942E-001	2.363829940284631E+001
-5.7678586E-001	4.874967018701137E-001	2.365489940242696E+001
-5.7574874E-001	4.804747886500422E-001	2.367169940200256E+001
-5.7477039E-001	4.695771681558765E-001	2.368829940158321E+001
-5.7373869E-001	4.835925977428761E-001	2.370489940116386E+001
-5.7275516E-001	4.867624766710739E-001	2.372169940073945E+001
-5.7174009E-001	4.766816392851378E-001	2.373829940032010E+001
-5.7078212E-001	4.791555085385022E-001	2.375489939990075E+001
-5.6973004E-001	4.541913806833322E-001	2.377169939947635E+001
-5.6879872E-001	4.371684976667165E-001	2.378829939905700E+001
-5.6685841E-001	4.407883351599771E-001	2.381989939825871E+001
-5.6498080E-001	4.457937260489491E-001	2.385169939745538E+001
-5.6394905E-001	4.503464125324459E-001	2.386829939703603E+001
-5.6294060E-001	4.449125859534602E-001	2.388489939661667E+001
-5.6197828E-001	4.492716910855643E-001	2.390169939619227E+001
-5.6098217E-001	4.585302632695267E-001	2.391829939577292E+001
-5.6002384E-001	4.613898449266958E-001	2.393489939535357E+001
-5.5890071E-001	4.505809150905238E-001	2.395169939492916E+001
-5.5793977E-001	4.488369483686983E-001	2.396829939450981E+001
-5.5698568E-001	4.632422177141766E-001	2.398489939409046E+001
-5.5596304E-001	4.678442336929329E-001	2.400169939366606E+001
-5.5498046E-001	4.503520628685740E-001	2.401829939324671E+001
-5.5398256E-001	4.562925861527516E-001	2.403489939282736E+001
-5.5295366E-001	4.566898637347759E-001	2.405169939240295E+001
-5.5201238E-001	4.587080487877966E-001	2.406829939198360E+001
-5.5096608E-001	4.610629392663644E-001	2.408489939156425E+001
-5.5001515E-001	4.678955320558629E-001	2.410169939113985E+001
-5.4900718E-001	4.793116560702524E-001	2.411829939072049E+001
-5.4800332E-001	4.853097022531765E-001	2.413489939030114E+001
-5.4696822E-001	4.930128357455956E-001	2.415169938987674E+001
-5.4597938E-001	5.134695867759476E-001	2.416829938945739E+001
-5.4501152E-001	5.103950637765236E-001	2.418489938903804E+001
-5.4402053E-001	4.963484181422326E-001	2.420169938861363E+001
-5.4300833E-001	4.989748483316765E-001	2.421829938819428E+001
-5.4199815E-001	4.987332698081932E-001	2.423489938777493E+001
-5.4099554E-001	4.956859257465434E-001	2.425169938735053E+001
-5.4000604E-001	5.064526655421506E-001	2.426829938693118E+001
-5.3900653E-001	5.003187073436038E-001	2.428489938651182E+001
-5.3801155E-001	4.964994489587834E-001	2.430169938608742E+001
-5.3699881E-001	4.963168408514722E-001	2.431829938566807E+001
-5.3600895E-001	5.100563118441226E-001	2.433489938524872E+001
-5.3495133E-001	5.117917619128187E-001	2.435169938482431E+001
-5.3398275E-001	5.056236918374060E-001	2.436829938440496E+001
-5.3296548E-001	5.048633176419473E-001	2.438489938398561E+001
-5.3196341E-001	5.067552257722445E-001	2.440169938356121E+001
-5.3094304E-001	4.982206548936672E-001	2.441829938314186E+001
-5.2997363E-001	4.920821617233280E-001	2.443489938272251E+001
-5.2888399E-001	5.144978015828450E-001	2.445169938229810E+001
-5.2800566E-001	4.995858123691570E-001	2.446829938187875E+001
-5.2702981E-001	5.005815724945739E-001	2.448489938145940E+001
-5.2594090E-001	5.243265878926557E-001	2.450169938103500E+001
-5.2498889E-001	5.315357617309537E-001	2.451829938061564E+001
-5.2394909E-001	5.361087011918393E-001	2.453489938019629E+001
-5.2300996E-001	5.111652494139136E-001	2.455169937977189E+001
-5.2202225E-001	5.213239094283839E-001	2.456829937935254E+001
-5.2102244E-001	5.232686210630657E-001	2.458489937893319E+001
-5.1995760E-001	5.149556546534102E-001	2.460169937850878E+001
-5.1902485E-001	4.995178796557926E-001	2.461829937808943E+001
-5.1803261E-001	5.014428938345770E-001	2.463489937767008E+001
-5.1706737E-001	5.124683449127616E-001	2.465169937724568E+001
-5.1599854E-001	5.293961850201940E-001	2.466829937682633E+001
-5.1502317E-001	5.064631599063674E-001	2.468489937640697E+001
-5.1400298E-001	4.884593966810247E-001	2.470169937598257E+001
-5.1299840E-001	5.009430189347928E-001	2.471829937556322E+001
-5.1201993E-001	4.750944762676976E-001	2.473489937514387E+001
-5.1094961E-001	4.698535863848203E-001	2.475169937471946E+001
-5.0996524E-001	4.755828277911585E-001	2.476829937430011E+001
-5.0895065E-001	4.841763065920932E-001	2.478489937388076E+001
-5.0793815E-001	4.712823253580254E-001	2.480169937345636E+001
-5.0693238E-001	4.630992944145351E-001	2.481829937303701E+001
-5.0599509E-001	4.511182753431289E-001	2.483489937261766E+001
-5.0492764E-001	4.566963560258337E-001	2.485169937219325E+001
-5.0392526E-001	4.486528854610192E-001	2.486829937177390E+001
-5.0293940E-001	4.430623165952676E-001	2.488489937135455E+001
-5.0195605E-001	4.565142175451751E-001	2.490169937093015E+001
-5.0097317E-001	4.661178189495363E-001	2.491829937051079E+001
-4.9995282E-001	4.740210518365116E-001	2.493489937009144E+001
-4.9891317E-001	4.910138525731043E-001	2.495169936966704E+001
-4.9796554E-001	5.034561175459793E-001	2.496829936924769E+001
-4.9698386E-001	5.116757888181356E-001	2.498489936882834E+001
-4.9595922E-001	5.051216611245444E-001	2.500169936840393E+001
-4.9493781E-001	4.885741299577067E-001	2.501829936798458E+001
-4.9399009E-001	4.898062476598577E-001	2.503489936756523E+001
-4.9289930E-001	4.774212903901955E-001	2.505169936714083E+001
-4.9197590E-001	4.694773301378725E-001	2.506829936672148E+001
-4.9092934E-001	4.699538937314526E-001	2.508489936630212E+001
-4.8995122E-001	4.740380628448411E-001	2.510169936587772E+001
-4.8894835E-001	4.975669653589532E-001	2.511829936545837E+001
-4.8792303E-001	5.014388489888781E-001	2.513489936503902E+001
-4.8698619E-001	4.892914511201276E-001	2.515169936461461E+001
-4.8594907E-001	4.647241860917870E-001	2.516829936419526E+001
-4.8494506E-001	4.648476687818777E-001	2.518489936377591E+001
-4.8387617E-001	4.553167234692297E-001	2.520169936335151E+001
-4.8297128E-001	4.542866572447952E-001	2.521829936293216E+001
-4.8195913E-001	4.669606853607613E-001	2.523489936251281E+001
-4.8090482E-001	4.761203429640997E-001	2.525169936208840E+001
-4.7996846E-001	4.581252471026467E-001	2.526829936166905E+001
-4.7889629E-001	4.582840973676907E-001	2.528489936124970E+001
-4.7791982E-001	4.582671353738350E-001	2.530169936082530E+001
-4.7695062E-001	4.564144826866672E-001	2.531829936040594E+001
-4.7596318E-001	4.529953257573980E-001	2.533489935998659E+001
-4.7494838E-001	4.505274561875399E-001	2.535169935956219E+001
-4.7394052E-001	4.665668861609364E-001	2.536829935914284E+001
-4.7296858E-001	4.505856504518935E-001	2.538489935872349E+001
-4.7197750E-001	4.700342616645834E-001	2.540169935829908E+001
-4.7093222E-001	4.716526797517298E-001	2.541829935787973E+001
-4.6996179E-001	4.758340986900853E-001	2.543489935746038E+001
-4.6897009E-001	4.585258236610210E-001	2.545169935703598E+001
-4.6795484E-001	4.430044195035263E-001	2.546829935661663E+001
-4.6698073E-001	4.439180724860892E-001	2.548489935619727E+001
-4.6593794E-001	4.463148504185188E-001	2.550169935577287E+001
-4.6494883E-001	4.444271410298022E-001	2.551829935535352E+001
-4.6396437E-001	4.322895813112480E-001	2.553489935493417E+001
-4.6295220E-001	4.538386680227200E-001	2.555169935450976E+001
-4.6196917E-001	4.584472750127311E-001	2.556829935409041E+001
-4.6098089E-001	4.397984387518630E-001	2.558489935367106E+001
-4.5992771E-001	4.457605590547136E-001	2.560169935324666E+001
-4.5894635E-001	4.335326753701620E-001	2.561829935282731E+001
-4.5792496E-001	4.498670909015683E-001	2.563489935240796E+001
-4.5698169E-001	4.558242519572389E-001	2.565169935198355E+001
-4.5594472E-001	4.536298723498140E-001	2.566829935156420E+001
-4.5494813E-001	4.785416763586303E-001	2.568489935114485E+001
-4.5391059E-001	4.551379396911289E-001	2.570169935072045E+001
-4.5294768E-001	4.568453899501934E-001	2.571829935030109E+001
-4.5194292E-001	4.646159033187551E-001	2.573489934988174E+001
-4.5092860E-001	4.546695278522854E-001	2.575169934945734E+001
-4.4997260E-001	4.572932327331767E-001	2.576829934903799E+001
-4.4894972E-001	4.731506967979160E-001	2.578489934861864E+001
-4.4793862E-001	4.821484800097036E-001	2.580169934819423E+001
-4.4697532E-001	4.732752179499333E-001	2.581829934777488E+001
-4.4596148E-001	4.689455286537605E-001	2.583489934735553E+001
-4.4492486E-001	4.685313951679411E-001	2.585169934693113E+001
-4.4399449E-001	4.760834225184394E-001	2.586829934651178E+001
-4.4300970E-001	4.848770520484282E-001	2.588489934609242E+001
-4.4189644E-001	4.781366292366568E-001	2.590169934566802E+001
-4.4094011E-001	4.689876671673527E-001	2.591829934524867E+001
-4.3995324E-001	4.739021354023782E-001	2.593489934482932E+001
-4.3896052E-001	4.807230681760455E-001	2.595169934440491E+001
-4.3797395E-001	4.695469516536432E-001	2.596829934398556E+001
-4.3696725E-001	4.652624390626126E-001	2.598489934356621E+001
-4.3594271E-001	4.548336648796178E-001	2.600169934314181E+001
-4.3496513E-001	4.368850675349440E-001	2.601829934272246E+001
-4.3390873E-001	4.371698550776482E-001	2.603489934230311E+001
-4.3290687E-001	4.456923428032988E-001	2.605169934187870E+001
-4.3195975E-001	4.595579945068424E-001	2.606829934145935E+001
-4.3097556E-001	4.607612718248530E-001	2.608489934104000E+001
-4.2993873E-001	4.502445739114449E-001	2.610169934061560E+001
-4.2895347E-001	4.606366302217850E-001	2.611829934019624E+001
-4.2796385E-001	4.548801721508320E-001	2.613489933977689E+001
-4.2691520E-001	4.471458784739166E-001	2.615169933935249E+001
-4.2596030E-001	4.470949247562226E-001	2.616829933893314E+001
-4.2500257E-001	4.489021557176289E-001	2.618509933850873E+001
-4.2404220E-001	4.390347760129307E-001	2.620169933808938E+001
-4.2301625E-001	4.333077969484880E-001	2.621829933767003E+001
-4.2198589E-001	4.473830152385779E-001	2.623509933724563E+001
-4.2099404E-001	4.482742926271417E-001	2.625169933682628E+001
-4.1999385E-001	4.461119024538354E-001	2.626829933640693E+001
-4.1897386E-001	4.558206917531793E-001	2.628509933598252E+001
-4.1796896E-001	4.426280322463976E-001	2.630169933556317E+001
-4.1695511E-001	4.296849096049034E-001	2.631829933514382E+001
-4.1593504E-001	4.327354057340163E-001	2.633509933471942E+001
-4.1499937E-001	4.164388066178377E-001	2.635169933430006E+001
-4.1390824E-001	4.195731495362187E-001	2.636829933388071E+001
-4.1295713E-001	4.136747914325030E-001	2.638509933345631E+001
-4.1196227E-001	4.196870146609033E-001	2.640169933303696E+001
-4.1097769E-001	4.185475336987925E-001	2.641829933261761E+001
-4.0993863E-001	4.181218287100403E-001	2.643509933219320E+001
-4.0891668E-001	4.239657414663149E-001	2.645169933177385E+001
-4.0800005E-001	4.329812516044408E-001	2.646829933135450E+001
-4.0691468E-001	4.452006465631233E-001	2.648509933093010E+001
-4.0595788E-001	4.326467450232152E-001	2.650169933051075E+001
-4.0497330E-001	4.347362099898362E-001	2.651829933009140E+001
-4.0392241E-001	4.271485325052504E-001	2.653509932966699E+001
-4.0293986E-001	4.532182777693723E-001	2.655169932924764E+001
-4.0195379E-001	4.675722820580859E-001	2.656829932882829E+001
-4.0138468E-001	4.691269099712372E-001	2.657739932859840E+001