Ewe/V	<I>/mA	time/s	
-4.1032025E-001	1.033293008804321E+000	0.000000000000000E+000
-4.1087303E-001	1.021689579304727E+000	5.499999861058313E-003
-4.1188917E-001	9.979088485447924E-001	1.549999960843707E-002
-4.1288412E-001	9.589462650215488E-001	2.549999935581582E-002
-4.1386315E-001	9.023780867767881E-001	3.549999910319457E-002
-4.1484228E-001	8.700216798008320E-001	4.549999885057332E-002
-4.1585526E-001	8.461226122453844E-001	5.549999859795207E-002
-4.1686609E-001	8.150008238024231E-001	6.549999834533082E-002
-4.1784939E-001	7.847976232878890E-001	7.549999809270957E-002
-4.1887188E-001	7.727191221072456E-001	8.549999784008833E-002
-4.1986907E-001	7.606071411218096E-001	9.549999758746708E-002
-4.2083851E-001	7.556153132269792E-001	1.054999973348458E-001
-4.2189711E-001	7.370118915827746E-001	1.154999970822246E-001
-4.2284751E-001	7.352631685013596E-001	1.254999968296033E-001
-4.2386186E-001	7.166261479603460E-001	1.356999965719297E-001
-4.2484343E-001	7.114539819942056E-001	1.454999963243608E-001
-4.2582822E-001	6.978338016817975E-001	1.556999960666872E-001
-4.2683420E-001	6.943140256598035E-001	1.654999958191183E-001
-4.2786154E-001	6.899004406192226E-001	1.756999955614447E-001
-4.2886084E-001	6.843226679807755E-001	1.856999953088234E-001
-4.2983881E-001	6.729490174394542E-001	1.956999950562022E-001
-4.3083695E-001	6.514381329632499E-001	2.056999948035809E-001
-4.3184674E-001	6.360882904587530E-001	2.156999945509597E-001
-4.3285874E-001	6.067912128443549E-001	2.256999942983384E-001
-4.3383139E-001	5.982790247330261E-001	2.356999940457172E-001
-4.3485606E-001	5.761464060698120E-001	2.456999937930959E-001
-4.3587860E-001	5.642233537510046E-001	2.556999935404747E-001
-4.3687677E-001	5.591927315108505E-001	2.656999932878534E-001
-4.3787599E-001	5.388493746933012E-001	2.756999930352322E-001
-4.3890166E-001	5.289029251887563E-001	2.856999927826109E-001
-4.3985313E-001	5.186190796084702E-001	2.956999925299897E-001
-4.4088095E-001	5.056097505924628E-001	3.056999922773684E-001
-4.4185269E-001	4.874355275339131E-001	3.156999920247472E-001
-4.4284546E-001	4.704624680129610E-001	3.256999917721259E-001
-4.4389135E-001	4.666912466701536E-001	3.356999915195047E-001
-4.4480994E-001	4.626780384116702E-001	3.456999912668834E-001
-4.4583878E-001	4.626215358213006E-001	3.556999910142622E-001
-4.4687307E-001	4.574778554184977E-001	3.656999907616409E-001
-4.4787332E-001	4.484463736621880E-001	3.756999905090197E-001
-4.4886506E-001	4.435870614316737E-001	3.856999902563985E-001
-4.4989821E-001	4.370532581944850E-001	3.956999900037772E-001
-4.5387280E-001	3.948281184097553E-001	4.356999889932922E-001
-4.5486557E-001	3.969961653153122E-001	4.456999887406710E-001
-4.5586064E-001	3.881314597092569E-001	4.556999884880497E-001
-4.5685658E-001	3.827712276122641E-001	4.656999882354285E-001
-4.5790464E-001	3.796685288349795E-001	4.756999879828072E-001
-4.5888045E-001	3.803405687989052E-001	4.856999877301860E-001
-4.5984897E-001	3.801510018658727E-001	4.956999874775647E-001
-4.6085873E-001	3.724028572647100E-001	5.056999872249435E-001
-4.6190250E-001	3.717965273600505E-001	5.156999869723222E-001
-4.6284443E-001	3.617677075995344E-001	5.256999867197010E-001
-4.6386909E-001	3.558792213702380E-001	5.356999864670797E-001
-4.6489909E-001	3.476010842455762E-001	5.456999862144585E-001
-4.6587810E-001	3.502414565171228E-001	5.556999859618372E-001
-4.6683380E-001	3.512926480163729E-001	5.656999857092160E-001
-4.6786696E-001	3.576834216817408E-001	5.756999854565947E-001
-4.6886197E-001	3.603785680606975E-001	5.856999852039735E-001
-4.6986857E-001	3.601951614125742E-001	5.956999849513522E-001
-4.7088584E-001	3.575268790332817E-001	6.056999846987310E-001
-4.7187224E-001	3.631784431895042E-001	6.156999844461097E-001
-4.7287995E-001	3.527609599857700E-001	6.256999841934885E-001
-4.7389406E-001	3.545455641320194E-001	6.356999839408672E-001
-4.7484761E-001	3.620382055071101E-001	6.456999836882460E-001
-4.7587332E-001	3.496973007244790E-001	6.556999834356247E-001
-4.7687355E-001	3.340058116656222E-001	6.656999831830035E-001
-4.7786334E-001	3.248246835234259E-001	6.756999829303822E-001
-4.7885504E-001	3.200200859250302E-001	6.856999826777610E-001
-4.7984257E-001	3.185906151257876E-001	6.956999824251398E-001
-4.8082691E-001	3.107156446462306E-001	7.056999821725185E-001
-4.8185050E-001	3.037891950096110E-001	7.156999819198973E-001
-4.8284557E-001	2.951179322165762E-001	7.256999816672760E-001
-4.8382878E-001	3.058606884442270E-001	7.356999814146548E-001
-4.8487574E-001	3.041946662124260E-001	7.456999811620335E-001
-4.8581550E-001	2.987983740814464E-001	7.556999809094123E-001
-4.8688164E-001	2.935992655499531E-001	7.656999806567910E-001
-4.8787868E-001	2.896612503358895E-001	7.756999804041698E-001
-4.8885772E-001	2.846303314953649E-001	7.856999801515485E-001
-4.8986116E-001	2.805145888641061E-001	7.956999798989273E-001
-4.9087206E-001	2.724885415906728E-001	8.056999796463060E-001
-4.9192962E-001	2.676132627659377E-001	8.156999793936848E-001
-4.9286410E-001	2.562792180106053E-001	8.256999791410635E-001
-4.9385375E-001	2.576063797653969E-001	8.356999788884423E-001
-4.9487731E-001	2.564710740569156E-001	8.456999786358210E-001
-4.9583742E-001	2.588722448433853E-001	8.556999783831998E-001
-4.9684820E-001	2.524687525971476E-001	8.656999781305785E-001
-4.9785268E-001	2.464664992358960E-001	8.756999778779573E-001
-4.9884978E-001	2.469982689298282E-001	8.856999776253360E-001
-4.9985856E-001	2.443190449978121E-001	8.956999773727148E-001
-5.0082600E-001	2.388114630399903E-001	9.056999771200935E-001
-5.0183153E-001	2.381966488384126E-001	9.156999768674723E-001
-5.0283492E-001	2.345434237245683E-001	9.256999766148510E-001
-5.0385320E-001	2.350458679979466E-001	9.356999763622298E-001
-5.0482178E-001	2.275567448749727E-001	9.456999761096085E-001
-5.0579441E-001	2.198377508644227E-001	9.556999758569873E-001
-5.0686467E-001	2.184863810737931E-001	9.656999756043660E-001
-5.0784266E-001	2.175086764489416E-001	9.756999753517448E-001
-5.0887048E-001	2.120756639374632E-001	9.856999750991235E-001
-5.0983584E-001	2.094670968363072E-001	9.956999748465023E-001
-5.1083606E-001	2.039307117229341E-001	1.005699974593881E+000
-5.1189673E-001	2.026576065303138E-001	1.015699974341260E+000
-5.1288426E-001	2.011657976545398E-001	1.025699974088639E+000
-5.1386976E-001	1.990042066512023E-001	1.035699973836017E+000
-5.1490390E-001	2.049190163767594E-001	1.045699973583396E+000
-5.1590312E-001	2.015422831755131E-001	1.055699973330775E+000
-5.1689380E-001	2.013168488111765E-001	1.065699973078154E+000
-5.1792061E-001	2.021924301645619E-001	1.075699972825532E+000
-5.1887852E-001	2.008940701295314E-001	1.085699972572911E+000
-5.1991588E-001	2.015419270869150E-001	1.095699972320290E+000
-5.2089489E-001	2.009334736891715E-001	1.105699972067669E+000
-5.2191001E-001	2.015481168249007E-001	1.115699971815047E+000
-5.2287209E-001	2.091409624554221E-001	1.125699971562426E+000
-5.2390534E-001	2.106297773619494E-001	1.135699971309805E+000
-5.2493417E-001	2.097351074658547E-001	1.145699971057184E+000
-5.2589726E-001	2.050610643345868E-001	1.155699970804562E+000
-5.2692193E-001	2.062119120188686E-001	1.165699970551941E+000
-5.2789688E-001	2.064682647922185E-001	1.175699970299320E+000
-5.2891082E-001	2.094142759451643E-001	1.185699970046699E+000
-5.2990681E-001	2.064869887350755E-001	1.195699969794077E+000
-5.3091878E-001	2.055953128470330E-001	1.205699969541456E+000
-5.3191280E-001	1.994275152295215E-001	1.215699969288835E+000
-5.3288645E-001	1.957818902252864E-001	1.225699969036214E+000
-5.3389412E-001	1.946691986975371E-001	1.235699968783592E+000
-5.3489965E-001	1.922761849774464E-001	1.245699968530971E+000
-5.3589040E-001	1.926334157146310E-001	1.255699968278350E+000
-5.3690028E-001	1.961345132181638E-001	1.265699968025729E+000
-5.3790152E-001	1.891434196408640E-001	1.275699967773107E+000
-5.3886044E-001	1.841073909955513E-001	1.285699967520486E+000
-5.3992015E-001	1.839314223551713E-001	1.295699967267865E+000
-5.4090238E-001	1.813064220930552E-001	1.305699967015244E+000
-5.4190904E-001	1.821244120753063E-001	1.315699966762622E+000
-5.4288167E-001	1.842100325609666E-001	1.325699966510001E+000
-5.4383630E-001	1.836759560198216E-001	1.335699966257380E+000
-5.4487264E-001	1.831379738222401E-001	1.345699966004759E+000
-5.4590267E-001	1.836148202419281E-001	1.355699965752137E+000
-5.4692096E-001	1.879365786185700E-001	1.365699965499516E+000
-5.4787350E-001	1.908686221189186E-001	1.375699965246895E+000
-5.4891080E-001	1.892633893035564E-001	1.385699964994274E+000
-5.4991859E-001	1.903615862958965E-001	1.395699964741652E+000
-5.5091143E-001	1.956133439412548E-001	1.405699964489031E+000
-5.5193388E-001	1.989798371990525E-001	1.415699964236410E+000
-5.5286419E-001	1.983181934338063E-001	1.425699963983789E+000
-5.5391866E-001	1.955308260965269E-001	1.435699963731167E+000
-5.5489868E-001	1.944580766010207E-001	1.445699963478546E+000
-5.5590850E-001	1.931054716308911E-001	1.455699963225925E+000
-5.5688751E-001	1.959156211491473E-001	1.465699962973304E+000
-5.5787927E-001	1.960313464644265E-001	1.475699962720682E+000
-5.5889982E-001	2.000889757053106E-001	1.485699962468061E+000
-5.5986720E-001	1.934862120283977E-001	1.495699962215440E+000
-5.6086951E-001	1.884906187317230E-001	1.505699961962819E+000
-5.6187290E-001	1.902773061560263E-001	1.515699961710197E+000
-5.6286371E-001	1.927371234244983E-001	1.525699961457576E+000
-5.6384599E-001	1.931823209031603E-001	1.535699961204955E+000
-5.6488013E-001	1.889204651945171E-001	1.545699960952334E+000
-5.6588143E-001	1.914433437632406E-001	1.555699960699712E+000
-5.6690288E-001	1.936388587346305E-001	1.565699960447091E+000
-5.6789911E-001	1.964385762370919E-001	1.575699960194470E+000
-5.6891942E-001	1.955073309881200E-001	1.585699959941849E+000
-5.6994408E-001	1.933536984466226E-001	1.595699959689227E+000
-5.7088602E-001	1.949031034277551E-001	1.605699959436606E+000
-5.7190531E-001	1.947018889865531E-001	1.615699959183985E+000
-5.7286537E-001	1.950757297713097E-001	1.625699958931364E+000
-5.7381994E-001	1.870468496344988E-001	1.635699958678742E+000
-5.7487011E-001	1.801746728855904E-001	1.645699958426121E+000
-5.7582891E-001	1.762679118352635E-001	1.655699958173500E+000
-5.7687593E-001	1.756322419581320E-001	1.665699957920879E+000
-5.7790059E-001	1.726973608084439E-001	1.675699957668257E+000
-5.7887745E-001	1.704075134799092E-001	1.685699957415636E+000
-5.7984275E-001	1.648098286758701E-001	1.695699957163015E+000
-5.8084828E-001	1.617723098671489E-001	1.705699956910394E+000
-5.8187622E-001	1.609608478352635E-001	1.715699956657772E+000
-5.8284777E-001	1.597259144764394E-001	1.725699956405151E+000
-5.8382046E-001	1.591324632754554E-001	1.735699956152530E+000
-5.8485043E-001	1.633475156785511E-001	1.745699955899909E+000
-5.8585608E-001	1.662145506124943E-001	1.755699955647287E+000
-5.8686060E-001	1.681722583533787E-001	1.765699955394666E+000
-5.8785439E-001	1.658566085776934E-001	1.775699955142045E+000
-5.8886635E-001	1.627954074905982E-001	1.785699954889424E+000
-5.8990055E-001	1.647773263458583E-001	1.795699954636802E+000
-5.9088922E-001	1.679261519392541E-001	1.805699954384181E+000
-5.9185976E-001	1.713225099827269E-001	1.815699954131560E+000
-5.9292156E-001	1.705011551578848E-001	1.825699953878939E+000
-5.9387833E-001	1.752854282321009E-001	1.835699953626317E+000
-5.9487545E-001	1.732415165881527E-001	1.845699953373696E+000
-5.9588313E-001	1.676380070599006E-001	1.855699953121075E+000
-5.9687054E-001	1.649073491054074E-001	1.865699952868454E+000
-5.9784544E-001	1.570184081792839E-001	1.875699952615832E+000
-5.9887546E-001	1.539923580647966E-001	1.885699952363211E+000
-5.9990644E-001	1.537909615759023E-001	1.895699952110590E+000
-6.0091305E-001	1.545237890160130E-001	1.905699951857969E+000
-6.0185814E-001	1.535386679849280E-001	1.915699951605347E+000
-6.0292000E-001	1.524463029862904E-001	1.925699951352726E+000
-6.0389912E-001	1.530298529348033E-001	1.935699951100105E+000
-6.0485685E-001	1.510419309294480E-001	1.945699950847484E+000
-6.0587513E-001	1.509977732655699E-001	1.955699950594862E+000
-6.0689551E-001	1.523406601174635E-001	1.965699950342241E+000
-6.0788518E-001	1.494990542479275E-001	1.975699950089620E+000
-6.0885799E-001	1.486476808786392E-001	1.985699949836999E+000
-6.0989422E-001	1.490001384194739E-001	1.995699949584377E+000
-6.1090511E-001	1.501633439782188E-001	2.005699949331756E+000
-6.1189473E-001	1.519793626050370E-001	2.015699949079135E+000
-6.1284524E-001	1.535307152791779E-001	2.025699948826514E+000
-6.1387199E-001	1.535245296415979E-001	2.035699948573892E+000
-6.1488074E-001	1.490434218172192E-001	2.045699948321271E+000
-6.1589372E-001	1.498282043806585E-001	2.055699948068650E+000
-6.1689931E-001	1.491395358849943E-001	2.065699947816029E+000
-6.1788899E-001	1.472109753716118E-001	2.075699947563407E+000
-6.1889136E-001	1.498621238602537E-001	2.085699947310786E+000
-6.1990535E-001	1.512069527913509E-001	2.095699947058165E+000
-6.2088335E-001	1.493580844770710E-001	2.105699946805544E+000
-6.2186038E-001	1.501985047038443E-001	2.115699946552922E+000
-6.2287337E-001	1.475742189084288E-001	2.125699946300301E+000
-6.2388837E-001	1.460647328575662E-001	2.135699946047680E+000
-6.2483567E-001	1.449121252969943E-001	2.145699945795059E+000
-6.2583703E-001	1.460361149964029E-001	2.155699945542437E+000
-6.2683409E-001	1.472920754329412E-001	2.165699945289816E+000
-6.2785983E-001	1.471199852336825E-001	2.175699945037195E+000
-6.2886745E-001	1.438512048399491E-001	2.185699944784574E+000
-6.2984860E-001	1.435102264189894E-001	2.195699944531953E+000
-6.3085961E-001	1.416588831667065E-001	2.205699944279331E+000
-6.3187683E-001	1.404861218891014E-001	2.215699944026710E+000
-6.3286543E-001	1.408119148626517E-001	2.225699943774089E+000
-6.3386774E-001	1.402513251588168E-001	2.235699943521468E+000
-6.3485426E-001	1.388764723411042E-001	2.245699943268846E+000
-6.3584924E-001	1.382300301661923E-001	2.255699943016225E+000
-6.3685900E-001	1.405997376423329E-001	2.265699942763604E+000
-6.3789004E-001	1.409878751081937E-001	2.275699942510983E+000
-6.3889027E-001	1.386232883281391E-001	2.285699942258361E+000
-6.3990229E-001	1.384909724195800E-001	2.295699942005740E+000
-6.4086115E-001	1.390752192172743E-001	2.305699941753119E+000
-6.4189851E-001	1.368537520368895E-001	2.315699941500498E+000
-6.4288819E-001	1.392123247626144E-001	2.325699941247876E+000
-6.4385247E-001	1.400361387705846E-001	2.335699940995255E+000
-6.4487070E-001	1.414602898164761E-001	2.345699940742634E+000
-6.4588159E-001	1.425749163997052E-001	2.355699940490013E+000
-6.4688182E-001	1.401967349488080E-001	2.365699940237391E+000
-6.4791286E-001	1.416800746875295E-001	2.375699939984770E+000
-6.4888030E-001	1.430432836318185E-001	2.385699939732149E+000
-6.4990598E-001	1.441644385405296E-001	2.395699939479528E+000
-6.5085322E-001	1.445912907236369E-001	2.405699939226906E+000
-6.5184176E-001	1.423701582631725E-001	2.415699938974285E+000
-6.5289301E-001	1.431923918814093E-001	2.425699938721664E+000
-6.5386355E-001	1.415081780869518E-001	2.435699938469043E+000
-6.5487868E-001	1.425966515024717E-001	2.445699938216421E+000
-6.5583652E-001	1.423925906031708E-001	2.455699937963800E+000
-6.5684313E-001	1.394232655616689E-001	2.465699937711179E+000
-6.5787214E-001	1.360242785239179E-001	2.475699937458558E+000
-6.5882677E-001	1.371857080246428E-001	2.485699937205936E+000
-6.5981209E-001	1.401363256025232E-001	2.495699936953315E+000
-6.6084313E-001	1.396176130510871E-001	2.505699936700694E+000
-6.6183919E-001	1.396937482447058E-001	2.515699936448073E+000
-6.6281825E-001	1.387625122960241E-001	2.525699936195451E+000
-6.6384715E-001	1.388102181695615E-001	2.535699935942830E+000
-6.6483784E-001	1.375471815958415E-001	2.545699935690209E+000
-6.6588372E-001	1.348006317728312E-001	2.555699935437588E+000
-6.6682678E-001	1.340965966487100E-001	2.565699935184966E+000
-6.6787475E-001	1.332091740979298E-001	2.575699934932345E+000
-6.6884315E-001	1.335902552301484E-001	2.585699934679724E+000
-6.6984552E-001	1.331533523172970E-001	2.595699934427103E+000
-6.7084479E-001	1.311239156509856E-001	2.605699934174481E+000
-6.7184395E-001	1.253723503840679E-001	2.615699933921860E+000
-6.7284739E-001	1.229971735867571E-001	2.625699933669239E+000
-6.7384237E-001	1.198038277798337E-001	2.635699933416618E+000
-6.7485428E-001	1.208246378163391E-001	2.645699933163996E+000
-6.7584938E-001	1.207334777573126E-001	2.655699932911375E+000
-6.7690897E-001	1.194584298904781E-001	2.665699932658754E+000
-6.7785293E-001	1.199018769354252E-001	2.675699932406133E+000
-6.7885745E-001	1.195043665744988E-001	2.685699932153511E+000
-6.7986524E-001	1.198379236286407E-001	2.695699931900890E+000
-6.8083692E-001	1.185978618515138E-001	2.705699931648269E+000
-6.8183392E-001	1.185453876516682E-001	2.715699931395648E+000
-6.8288934E-001	1.148757298037204E-001	2.725699931143026E+000
-6.8386412E-001	1.130390484985486E-001	2.735699930890405E+000
-6.8485492E-001	1.114921068397561E-001	2.745699930637784E+000
-6.8582761E-001	1.122664575749598E-001	2.755699930385163E+000
-6.8685323E-001	1.114652527095234E-001	2.765699930132541E+000
-6.8784076E-001	1.117147081790284E-001	2.775699929879920E+000
-6.8886656E-001	1.123805887634972E-001	2.785699929627299E+000
-6.8986356E-001	1.104857824716929E-001	2.795699929374678E+000
-6.9087130E-001	1.089091607071980E-001	2.805699929122056E+000
-6.9184077E-001	1.074109745742240E-001	2.815699928869435E+000
-6.9280392E-001	1.083314372485300E-001	2.825699928616814E+000
-6.9386047E-001	1.080779143117578E-001	2.835699928364193E+000
-6.9487768E-001	1.079985865702234E-001	2.845699928111571E+000
-6.9583338E-001	1.063799183595822E-001	2.855699927858950E+000
-6.9686437E-001	1.048776787162450E-001	2.865699927606329E+000
-6.9786578E-001	1.041506617071316E-001	2.875699927353708E+000
-6.9884479E-001	1.045227380559990E-001	2.885699927101086E+000
-6.9986099E-001	1.005105074081157E-001	2.895699926848465E+000
-7.0085382E-001	1.006394771458064E-001	2.905699926595844E+000
-7.0182979E-001	9.851341148734982E-002	2.915699926343223E+000
-7.0290846E-001	9.953051259637768E-002	2.925699926090601E+000
-7.0387691E-001	9.885703486442199E-002	2.935699925837980E+000
-7.0481032E-001	1.022940159309658E-001	2.945699925585359E+000
-7.0585614E-001	9.996017670750434E-002	2.955699925332738E+000
-7.0688826E-001	9.948439572730838E-002	2.965699925080116E+000
-7.0787054E-001	9.686576351264686E-002	2.975699924827495E+000
-7.0884740E-001	9.580837852425084E-002	2.985699924574874E+000
-7.0983076E-001	9.450931301237020E-002	2.995699924322253E+000
-7.1081722E-001	9.376039515740986E-002	3.005699924069631E+000
-7.1182603E-001	9.390261825562191E-002	3.015699923817010E+000
-7.1286553E-001	9.210745019501965E-002	3.025699923564389E+000
-7.1381485E-001	9.141718857507808E-002	3.035699923311768E+000
-7.1485323E-001	9.049937932286473E-002	3.045699923059146E+000
-7.1584183E-001	8.948828439719803E-002	3.055699922806525E+000
-7.1687192E-001	9.057799418224088E-002	3.065699922553904E+000
-7.1790183E-001	9.000964520964805E-002	3.075699922301283E+000
-7.1887875E-001	8.939464649625339E-002	3.085699922048661E+000
-7.1985883E-001	8.773339515189788E-002	3.095699921796040E+000
-7.2086233E-001	8.653855965369328E-002	3.105699921543419E+000
-7.2186786E-001	8.594370954799380E-002	3.115699921290798E+000
-7.2285748E-001	8.673432266287917E-002	3.125699921038176E+000
-7.2388959E-001	8.520645868136678E-002	3.135699920785555E+000
-7.2488678E-001	8.419783670817438E-002	3.145699920532934E+000
-7.2585309E-001	8.194862221393601E-002	3.155699920280313E+000
-7.2685122E-001	8.166382418453935E-002	3.165699920027691E+000
-7.2790128E-001	7.958315331618226E-002	3.175699919775070E+000
-7.2884744E-001	7.999391812417253E-002	3.185699919522449E+000
-7.2981387E-001	7.974110402736001E-002	3.195699919269828E+000
-7.3083109E-001	7.769576698774472E-002	3.205699919017206E+000
-7.3185676E-001	7.682565295059862E-002	3.215699918764585E+000
-7.3282623E-001	7.588382023904069E-002	3.225699918511964E+000
-7.3383933E-001	7.585448728382829E-002	3.235699918259343E+000
-7.3486716E-001	7.717759060647567E-002	3.245699918006721E+000
-7.3584294E-001	7.774558864508063E-002	3.255699917754100E+000
-7.3684424E-001	7.672442614178476E-002	3.265699917501479E+000
-7.3787111E-001	7.646153581380477E-002	3.275699917248858E+000
-7.3885119E-001	7.621560706886377E-002	3.285699916996236E+000
-7.3983669E-001	7.640375898659460E-002	3.295699916743615E+000
-7.4084222E-001	7.533595628208606E-002	3.305699916490994E+000
-7.4187636E-001	7.499762784249897E-002	3.315699916238373E+000
-7.4286395E-001	7.512253844308581E-002	3.325699915985751E+000
-7.4385047E-001	7.661524106515549E-002	3.335699915733130E+000
-7.4486870E-001	7.724384075522195E-002	3.345699915480509E+000
-7.4588060E-001	7.780407105908815E-002	3.355699915227888E+000
-7.4682683E-001	7.769311661832012E-002	3.365699914975266E+000
-7.4787164E-001	7.886321680982511E-002	3.375699914722645E+000
-7.4883264E-001	7.618468898322661E-002	3.385699914470024E+000
-7.4985200E-001	7.280760113563844E-002	3.395699914217403E+000
-7.5088829E-001	7.089247453000602E-002	3.405699913964781E+000
-7.5187385E-001	7.112497046020730E-002	3.415699913712160E+000
-7.5288361E-001	7.232546042521616E-002	3.425699913459539E+000
-7.5383610E-001	7.483191140798051E-002	3.435699913206918E+000
-7.5487131E-001	7.460559240361292E-002	3.445699912954296E+000
-7.5586104E-001	7.307914522243686E-002	3.455699912701675E+000
-7.5686663E-001	7.290936199327336E-002	3.465699912449054E+000
-7.5790828E-001	7.275459369541060E-002	3.475699912196433E+000
-7.5885540E-001	7.234772413115353E-002	3.485699911943811E+000
-7.5991619E-001	7.173431102031247E-002	3.495699911691190E+000
-7.6087511E-001	7.174827459190691E-002	3.505699911438569E+000
-7.6187974E-001	7.086933159735098E-002	3.515699911185948E+000
-7.6289153E-001	6.911903777573725E-002	3.525699910933326E+000
-7.6387376E-001	6.960524153611125E-002	3.535699910680705E+000
-7.6487291E-001	6.876940518850483E-002	3.545699910428084E+000
-7.6588184E-001	6.789010479244273E-002	3.555699910175463E+000
-7.6687783E-001	6.722811827461994E-002	3.565699909922841E+000
-7.6789922E-001	6.784823756768499E-002	3.575699909670220E+000
-7.6885700E-001	6.943474849039299E-002	3.585699909417599E+000
-7.6987863E-001	6.934923676696311E-002	3.595699909164978E+000
-7.7090538E-001	6.900755635514444E-002	3.605699908912356E+000
-7.7192682E-001	6.914889648841294E-002	3.615699908659735E+000
-7.7287936E-001	6.822418920152495E-002	3.625699908407114E+000
-7.7384889E-001	6.857064240224064E-002	3.635699908154493E+000
-7.7485764E-001	6.784858550721189E-002	3.645699907901871E+000
-7.7587271E-001	6.761131874130411E-002	3.655699907649250E+000
-7.7688891E-001	6.813744395428062E-002	3.665699907396629E+000
-7.7786475E-001	6.744701148191878E-002	3.675699907144008E+000
-7.7889371E-001	6.696222155975817E-002	3.685699906891386E+000
-7.7986109E-001	6.776784358468552E-002	3.695699906638765E+000
-7.8086454E-001	6.819875474320741E-002	3.705699906386144E+000
-7.8185523E-001	6.779117197341594E-002	3.715699906133523E+000
-7.8287989E-001	6.742192703273364E-002	3.725699905880902E+000
-7.8385156E-001	6.782137762315388E-002	3.735699905628280E+000
-7.8489745E-001	6.677883317590605E-002	3.745699905375659E+000
-7.8590512E-001	6.586667434183102E-002	3.755699905123038E+000
-7.8687882E-001	6.482466810848564E-002	3.765699904870417E+000
-7.8782618E-001	6.343072530580707E-002	3.775699904617795E+000
-7.8884870E-001	6.331005186075367E-002	3.785699904365174E+000
-7.8987008E-001	6.205320952641280E-002	3.795699904112553E+000
-7.9084390E-001	6.131648876018736E-002	3.805699903859932E+000
-7.9185998E-001	6.021970771770535E-002	3.815699903607310E+000
-7.9284233E-001	6.000275305834502E-002	3.825699903354689E+000
-7.9385418E-001	6.031917587905711E-002	3.835699903102068E+000
-7.9488415E-001	5.950948724057503E-002	3.845699902849447E+000
-7.9588228E-001	5.816889786446056E-002	3.855699902596825E+000
-7.9689103E-001	5.836164638943353E-002	3.865699902344204E+000
-7.9786801E-001	5.720656294336868E-002	3.875699902091583E+000
-7.9882693E-001	5.675976015886122E-002	3.885699901838962E+000
-7.9986632E-001	5.447185380035086E-002	3.895699901586340E+000
-8.0085814E-001	5.303056385794980E-002	3.905699901333719E+000
-8.0184048E-001	5.186682052509339E-002	3.915699901081098E+000
-8.0287153E-001	5.170816816260204E-002	3.925699900828477E+000
-8.0385786E-001	5.214225358860047E-002	3.935699900575855E+000
-8.0486661E-001	5.103769846674477E-002	3.945699900323234E+000
-8.0584472E-001	5.088558368798757E-002	3.955699900070613E+000
-8.0687147E-001	5.141029988428492E-002	3.965699899817992E+000
-8.0787593E-001	5.070308080434616E-002	3.975699899565370E+000
-8.0884230E-001	5.113345402383479E-002	3.985699899312749E+000
-8.0983937E-001	5.218129875073751E-002	3.995699899060128E+000
-8.1084496E-001	5.211062798884503E-002	4.005699898807507E+000
-8.1185585E-001	5.271802912142864E-002	4.015699898554885E+000
-8.1283915E-001	5.163255484270257E-002	4.025699898302264E+000
-8.1383193E-001	5.138786386426863E-002	4.035699898049643E+000
-8.1484079E-001	5.109423166464322E-002	4.045699897797022E+000
-8.1583363E-001	5.168131578183310E-002	4.055699897544400E+000
-8.1684446E-001	5.128733459989465E-002	4.065699897291779E+000
-8.1783402E-001	5.144828194817005E-002	4.075699897039158E+000
-8.1885982E-001	5.176169939740150E-002	4.085699896786537E+000
-8.1987387E-001	5.201257492363875E-002	4.095699896533915E+000
-8.2089746E-001	5.193183580478150E-002	4.105699896281294E+000
-8.2188606E-001	5.033242268837068E-002	4.115699896028673E+000
-8.2285881E-001	4.958615905424185E-002	4.125699895776052E+000
-8.2385480E-001	4.833867722643642E-002	4.135699895523430E+000
-8.2486248E-001	4.841482235739630E-002	4.145699895270809E+000
-8.2586491E-001	4.799416719470173E-002	4.155699895018188E+000
-8.2686192E-001	4.819097730150050E-002	4.165699894765567E+000
-8.2785165E-001	4.730408545583492E-002	4.175699894512945E+000
-8.2889754E-001	4.719666914509935E-002	4.185699894260324E+000
-8.2986063E-001	4.725549862875300E-002	4.195699894007703E+000
-8.3087993E-001	4.654704467005411E-002	4.205699893755082E+000
-8.3185583E-001	4.713783451653525E-002	4.215699893502460E+000
-8.3282757E-001	4.641065403120603E-002	4.225699893249839E+000
-8.3387446E-001	4.580767210831671E-002	4.235699892997218E+000
-8.3485240E-001	4.552464246323051E-002	4.245699892744597E+000
-8.3583146E-001	4.598027950204509E-002	4.255699892491975E+000
-8.3686149E-001	4.647072252312978E-002	4.265699892239354E+000
-8.3785641E-001	4.321924525558857E-002	4.275699891986733E+000
-8.3885562E-001	4.263852686077996E-002	4.285699891734112E+000
-8.3985901E-001	4.217475773960666E-002	4.295699891481490E+000
-8.4083700E-001	4.181558254963935E-002	4.305699891228869E+000
-8.4189034E-001	4.157813948889583E-002	4.315699890976248E+000
-8.4285247E-001	4.078169881055765E-002	4.325699890723627E+000
-8.4535968E-001	3.971842781398804E-002	4.350699890092073E+000
-8.4793437E-001	3.789934615552859E-002	4.375699889460520E+000
-8.4893990E-001	3.722811984092322E-002	4.385699889207899E+000
-8.4994233E-001	3.683036997487471E-002	4.395699888955278E+000
-8.5093200E-001	3.601390585148095E-002	4.405699888702657E+000
-8.5191429E-001	3.602022947678862E-002	4.415699888450035E+000
-8.5295266E-001	3.511560555974336E-002	4.425699888197414E+000
-8.5388499E-001	3.479965434720123E-002	4.435699887944793E+000
-8.5493201E-001	3.514644635207453E-002	4.445699887692172E+000
-8.5593659E-001	3.514875863846925E-002	4.455699887439550E+000
-8.5691553E-001	3.515591420647163E-002	4.465699887186929E+000
-8.5793597E-001	3.512488093757493E-002	4.475699886934308E+000
-8.5888952E-001	3.480799101978656E-002	4.485699886681687E+000
-8.5994822E-001	3.436864437470732E-002	4.495699886429065E+000
-8.6092520E-001	3.410982954018338E-002	4.505699886176444E+000
-8.6189669E-001	3.372236018508895E-002	4.515699885923823E+000
-8.6294371E-001	3.336203873429136E-002	4.525699885671202E+000
-8.6391640E-001	3.273293748497973E-002	4.535699885418580E+000
-8.6491561E-001	3.233824639270708E-002	4.545699885165959E+000
-8.6589253E-001	3.154752897292701E-002	4.555699884913338E+000
-8.6688429E-001	3.118586684609506E-002	4.565699884660717E+000
-8.6791199E-001	2.978974258197320E-002	4.575699884408095E+000
-8.6888593E-001	2.917887148699561E-002	4.585699884155474E+000
-8.6991590E-001	2.890956638859482E-002	4.595699883902853E+000
-8.7089491E-001	2.884658157967762E-002	4.605699883650232E+000
-8.7192911E-001	2.854735318558399E-002	4.615699883397610E+000
-8.7292933E-001	2.810429780705228E-002	4.625699883144989E+000
-8.7390959E-001	2.784468892948810E-002	4.635699882892368E+000
-8.7490445E-001	2.757086271433051E-002	4.645699882639747E+000
-8.7589091E-001	2.717754439961735E-002	4.655699882387125E+000
-8.7690812E-001	2.668082929449167E-002	4.665699882134504E+000
-8.7785977E-001	2.646578474862819E-002	4.675699881881883E+000
-8.7889177E-001	2.596182863473789E-002	4.685699881629262E+000
-8.7990898E-001	2.580990818710743E-002	4.695699881376640E+000
-8.8088477E-001	2.517494694782529E-002	4.705699881124019E+000
-8.8188618E-001	2.410581294033276E-002	4.715699880871398E+000
-8.8288653E-001	2.329861925843751E-002	4.725699880618777E+000
-8.8388354E-001	2.287160242041059E-002	4.735699880366155E+000
-8.8487208E-001	2.240821713995601E-002	4.745699880113534E+000
-8.8584894E-001	2.195659495676722E-002	4.755699879860913E+000
-8.8685894E-001	2.170447662259312E-002	4.765699879608292E+000
-8.8789415E-001	2.143022487547985E-002	4.775699879355670E+000
-8.8886786E-001	2.101182635103926E-002	4.785699879103049E+000
-8.8987130E-001	2.082518306593159E-002	4.795699878850428E+000
-8.9086950E-001	2.061557623447802E-002	4.805699878597807E+000
-8.9188993E-001	2.028494529076857E-002	4.815699878345185E+000
-8.9284557E-001	1.982714174664579E-002	4.825699878092564E+000
-8.9387661E-001	1.955384357036877E-002	4.835699877839943E+000
-8.9484292E-001	1.929167512248067E-002	4.845699877587322E+000
-8.9586771E-001	1.912880572652087E-002	4.855699877334700E+000
-8.9690292E-001	1.920283071619153E-002	4.865699877082079E+000
-8.9789361E-001	1.871710098930640E-002	4.875699876829458E+000
-8.9888847E-001	1.879709591190079E-002	4.885699876576837E+000
-8.9984959E-001	1.872874051332479E-002	4.895699876324215E+000
-9.0086901E-001	1.846461148589804E-002	4.905699876071594E+000
-9.0189892E-001	1.813016529356704E-002	4.915699875818973E+000
-9.0293735E-001	1.745521386328625E-002	4.925699875566352E+000
-9.0389520E-001	1.753315872823202E-002	4.935699875313730E+000
-9.0482020E-001	1.744966691573319E-002	4.945699875061109E+000
-9.0588522E-001	1.707828834575295E-002	4.955699874808488E+000
-9.0686101E-001	1.700597663713987E-002	4.965699874555867E+000
-9.0785074E-001	1.669774183796514E-002	4.975699874303245E+000
-9.0889233E-001	1.625567452154228E-002	4.985699874050624E+000
-9.0986508E-001	1.619643400449106E-002	4.995699873798003E+000
-9.1087377E-001	1.595060313088145E-002	5.005699873545382E+000
-9.1189843E-001	1.567147631269314E-002	5.015699873292760E+000
-9.1287738E-001	1.520798591890427E-002	5.025699873040139E+000
-9.1386718E-001	1.507355335747385E-002	5.035699872787518E+000
-9.1490132E-001	1.458081263182170E-002	5.045699872534897E+000
-9.1588360E-001	1.399769062279836E-002	5.055699872282275E+000
-9.1690183E-001	1.423142357008250E-002	5.065699872029654E+000
-9.1789371E-001	1.363019667527020E-002	5.075699871777033E+000
-9.1889071E-001	1.330751389226262E-002	5.085699871524412E+000
-9.1986239E-001	1.294150411801342E-002	5.095699871271790E+000
-9.2090505E-001	1.253146109067734E-002	5.105699871019169E+000
-9.2196882E-001	1.251012401513035E-002	5.115699870766548E+000
-9.2296928E-001	1.202059718020291E-002	5.125699870513927E+000
-9.2392284E-001	1.182189009462800E-002	5.135699870261305E+000
-9.2494750E-001	1.152095034679715E-002	5.145699870008684E+000
-9.2590958E-001	1.116414251979830E-002	5.155699869756063E+000
-9.2695558E-001	1.082423807707127E-002	5.165699869503442E+000
-9.2796534E-001	1.042410396379034E-002	5.175699869250820E+000
-9.2892200E-001	1.019254319301886E-002	5.185699868998199E+000
-9.2992759E-001	9.984527380664882E-003	5.195699868745578E+000
-9.3094480E-001	9.598417484893540E-003	5.205699868492957E+000
-9.3189102E-001	9.608661730049404E-003	5.215699868240335E+000
-9.3294644E-001	9.221279763247991E-003	5.225699867987714E+000
-9.3389362E-001	9.291171820627345E-003	5.235699867735093E+000
-9.3491399E-001	8.870248501706479E-003	5.245699867482472E+000
-9.3595040E-001	8.513493336472014E-003	5.255699867229851E+000
-9.3693054E-001	8.370830724339237E-003	5.265699866977229E+000
-9.3793499E-001	8.026598670565127E-003	5.275699866724608E+000
-9.3892896E-001	7.856646855846833E-003	5.285699866471987E+000
-9.3989742E-001	7.575313167762950E-003	5.295699866219366E+000
-9.4092631E-001	7.330983080060444E-003	5.305699865966744E+000
-9.4190961E-001	7.110285268330102E-003	5.315699865714123E+000
-9.4293529E-001	6.651210046079041E-003	5.325699865461502E+000
-9.4390792E-001	6.268366893588506E-003	5.335699865208881E+000
-9.4489551E-001	6.099651252346447E-003	5.345699864956259E+000
-9.4591385E-001	5.770256375803424E-003	5.355699864703638E+000
-9.4691628E-001	5.425953948158868E-003	5.365699864451017E+000
-9.4792503E-001	5.138897321659116E-003	5.375699864198396E+000
-9.4891137E-001	4.958329444586240E-003	5.385699863945774E+000
-9.4991916E-001	4.851698887149646E-003	5.395699863693153E+000
-9.5091945E-001	4.726257475138287E-003	5.405699863440532E+000
-9.5190591E-001	4.536663786388506E-003	5.415699863187911E+000
-9.5294112E-001	3.785656902740214E-003	5.425699862935289E+000
-9.5392448E-001	3.380046841711087E-003	5.435699862682668E+000
-9.5494705E-001	3.189623342324124E-003	5.445699862430047E+000
-9.5590699E-001	2.855812846165578E-003	5.455699862177426E+000
-9.5835036E-001	1.922139428036952E-003	5.480699861545872E+000
-9.6089965E-001	8.624263006014308E-004	5.505699860914319E+000
-9.6188521E-001	8.045481156134203E-004	5.515699860661698E+000
-9.6291733E-001	1.410511480675806E-004	5.525699860409077E+000
-9.6390808E-001	-1.211997933899694E-004	5.535699860156456E+000
-9.6493798E-001	-4.403588906522291E-004	5.545699859903834E+000
-9.6588516E-001	-8.059244720849722E-004	5.555699859651213E+000
-9.6690673E-001	-9.031886722570756E-004	5.565699859398592E+000
-9.6789104E-001	-1.326567125640088E-003	5.575699859145971E+000
-9.6887326E-001	-1.508499974281420E-003	5.585699858893349E+000
-9.6987247E-001	-1.826575809900532E-003	5.595699858640728E+000
-9.7087914E-001	-2.278623178830857E-003	5.605699858388107E+000
-9.7187519E-001	-2.287371733271138E-003	5.615699858135486E+000
-9.7287863E-001	-2.658289756760086E-003	5.625699857882864E+000
-9.7385758E-001	-2.809756688293407E-003	5.635699857630243E+000
-9.7489291E-001	-3.140822117024475E-003	5.645699857377622E+000
-9.7590059E-001	-3.580694420735303E-003	5.655699857125001E+000
-9.7688717E-001	-3.677744745396505E-003	5.665699856872379E+000
-9.7792459E-001	-3.979101034929058E-003	5.675699856619758E+000
-9.7890037E-001	-4.147171547325940E-003	5.685699856367137E+000
-9.7987515E-001	-4.467655793026368E-003	5.695699856114516E+000
-9.8089671E-001	-4.893765835327517E-003	5.705699855861894E+000
-9.8190445E-001	-4.995331120072562E-003	5.715699855609273E+000
-9.8287380E-001	-5.351062815962974E-003	5.725699855356652E+000
-9.8390800E-001	-5.526215455271682E-003	5.735699855104031E+000
-9.8491788E-001	-5.758537873286191E-003	5.745699854851409E+000
-9.8589277E-001	-6.107939962223287E-003	5.755699854598788E+000
-9.8689401E-001	-6.173729533151741E-003	5.765699854346167E+000
-9.8790276E-001	-6.517771985575849E-003	5.775699854093546E+000
-9.8892319E-001	-6.670301026234574E-003	5.785699853840924E+000
-9.8989922E-001	-6.888946290321954E-003	5.795699853588303E+000
-9.9089831E-001	-7.194082153647419E-003	5.805699853335682E+000
-9.9188900E-001	-7.226809710118687E-003	5.815699853083061E+000
-9.9285209E-001	-7.533823758421918E-003	5.825699852830439E+000
-9.9389052E-001	-7.660339942554384E-003	5.835699852577818E+000
-9.9492490E-001	-7.836364590427053E-003	5.845699852325197E+000
-9.9588907E-001	-8.103204216038440E-003	5.855699852072576E+000
-9.9690408E-001	-8.108162878973674E-003	5.865699851819954E+000
-9.9794137E-001	-8.376140074687961E-003	5.875699851567333E+000
-9.9889517E-001	-8.432442627963610E-003	5.885699851314712E+000
-9.9992406E-001	-8.582206572302492E-003	5.895699851062091E+000
-1.0009316E+000	-8.810310730445428E-003	5.905699850809469E+000
-1.0019161E+000	-8.762670657435735E-003	5.915699850556848E+000
-1.0029163E+000	-9.001002346243070E-003	5.925699850304227E+000
-1.0038954E+000	-9.046810004090494E-003	5.935699850051606E+000
-1.0048903E+000	-9.168208856458998E-003	5.945699849798984E+000
-1.0059065E+000	-9.390531465113677E-003	5.955699849546363E+000
-1.0068941E+000	-9.334627238179849E-003	5.965699849293742E+000
-1.0079049E+000	-9.565695092735207E-003	5.975699849041121E+000
-1.0088735E+000	-9.614214656014336E-003	5.985699848788499E+000
-1.0099299E+000	-9.756049040232827E-003	5.995699848535878E+000
-1.0108930E+000	-9.999607821454329E-003	6.005699848283257E+000
-1.0118827E+000	-9.949312545359123E-003	6.015699848030636E+000
-1.0129063E+000	-1.020944126260774E-002	6.025699847778014E+000
-1.0138971E+000	-1.029085841582851E-002	6.035699847525393E+000
-1.0149132E+000	-1.044452510217928E-002	6.045699847272772E+000
-1.0158975E+000	-1.073107511426011E-002	6.055699847020151E+000
-1.0183730E+000	-1.099647855918215E-002	6.080699846388598E+000
-1.0208979E+000	-1.156100839822707E-002	6.105699845757044E+000
-1.0219035E+000	-1.168028570504648E-002	6.115699845504423E+000
-1.0228995E+000	-1.200448799742536E-002	6.125699845251802E+000
-1.0239421E+000	-1.217707115332203E-002	6.135699844999181E+000
-1.0248893E+000	-1.241550222524284E-002	6.145699844746559E+000
-1.0259289E+000	-1.282634047755789E-002	6.155699844493938E+000
-1.0268719E+000	-1.295713361388248E-002	6.165699844241317E+000
-1.0278742E+000	-1.337159317093506E-002	6.175699843988696E+000
-1.0288936E+000	-1.361671790719909E-002	6.185699843736074E+000
-1.0299054E+000	-1.386293876890299E-002	6.195699843483453E+000
-1.0308846E+000	-1.431286478489505E-002	6.205699843230832E+000
-1.0318764E+000	-1.452923541122192E-002	6.215699842978211E+000
-1.0328777E+000	-1.496455416458453E-002	6.225699842725589E+000
-1.0338821E+000	-1.528953313310108E-002	6.235699842472968E+000
-1.0348973E+000	-1.562390857240339E-002	6.245699842220347E+000
-1.0358955E+000	-1.603084465831567E-002	6.255699841967726E+000
-1.0368501E+000	-1.631798963030125E-002	6.265699841715104E+000
-1.0378758E+000	-1.691836828993265E-002	6.275699841462483E+000
-1.0388654E+000	-1.726025106876877E-002	6.285699841209862E+000
-1.0399020E+000	-1.763396202618922E-002	6.295699840957241E+000
-1.0408915E+000	-1.813535649529924E-002	6.305699840704619E+000
-1.0418568E+000	-1.846206601637981E-002	6.315699840451998E+000
-1.0428803E+000	-1.908616681693165E-002	6.325699840199377E+000
-1.0439368E+000	-1.948197508237265E-002	6.335699839946756E+000
-1.0448862E+000	-2.009473559964028E-002	6.345699839694134E+000
-1.0458579E+000	-2.075783465827241E-002	6.355699839441513E+000
-1.0468963E+000	-2.114779452353505E-002	6.365699839188892E+000
-1.0478710E+000	-2.187004645950055E-002	6.375699838936271E+000
-1.0488831E+000	-2.235457598969021E-002	6.385699838683649E+000
-1.0499163E+000	-2.293382918125844E-002	6.395699838431028E+000
-1.0509121E+000	-2.375683128290496E-002	6.405699838178407E+000
-1.0518838E+000	-2.531854496919550E-002	6.415699837925786E+000
-1.0529022E+000	-2.735643314695646E-002	6.425699837673164E+000
-1.0538630E+000	-2.835180716647312E-002	6.435699837420543E+000
-1.0548624E+000	-2.954221275124114E-002	6.445699837167922E+000
-1.0558616E+000	-3.124159304004737E-002	6.455699836915301E+000
-1.0568438E+000	-3.342283488018419E-002	6.465699836662679E+000
-1.0578697E+000	-3.558579582992638E-002	6.475699836410058E+000
-1.0588506E+000	-3.856629717564719E-002	6.485699836157437E+000
-1.0598743E+000	-4.176509681403512E-002	6.495699835904816E+000
-1.0608257E+000	-4.515445846805544E-002	6.505699835652194E+000
-1.0618833E+000	-4.884951400971549E-002	6.515699835399573E+000
-1.0628846E+000	-5.320497844109506E-002	6.525699835146952E+000
-1.0638658E+000	-5.812585526210645E-002	6.535699834894331E+000
-1.0648820E+000	-6.375483272131521E-002	6.545699834641709E+000
-1.0658461E+000	-7.128112624114735E-002	6.555699834389088E+000
-1.0668306E+000	-8.014539307785307E-002	6.565699834136467E+000
-1.0678414E+000	-9.154206269886322E-002	6.575699833883846E+000
-1.0702602E+000	-1.491502326406717E-001	6.600699833252293E+000
-1.0728267E+000	-2.099723662767143E-001	6.625699832620739E+000
-1.0738376E+000	-2.399792612090508E-001	6.635699832368118E+000
-1.0748390E+000	-2.759034545678221E-001	6.645699832115497E+000
-1.0758637E+000	-3.182054849134541E-001	6.655699831862876E+000
-1.0768416E+000	-3.578175114364255E-001	6.665699831610254E+000
-1.0778664E+000	-4.036265105888663E-001	6.675699831357633E+000
-1.0788177E+000	-4.629205378134627E-001	6.685699831105012E+000
-1.0798383E+000	-5.249938206333251E-001	6.695699830852391E+000
-1.0808470E+000	-5.887996766509254E-001	6.705699830599769E+000
-1.0817921E+000	-6.542941527441144E-001	6.715699830347148E+000
-1.0827744E+000	-7.195220640860489E-001	6.725699830094527E+000
-1.0838182E+000	-7.929274199220018E-001	6.735699829841906E+000
-1.0847844E+000	-8.740505982293847E-001	6.745699829589284E+000
-1.0858111E+000	-9.663653565156807E-001	6.755699829336663E+000
-1.0883646E+000	-1.209338385158059E+000	6.780699828705110E+000
-1.0908401E+000	-1.457521210424594E+000	6.805699828073557E+000
-1.0918010E+000	-1.563153885822320E+000	6.815699827820936E+000
-1.0928428E+000	-1.667680831005171E+000	6.825699827568315E+000
-1.0938399E+000	-1.769143175333738E+000	6.835699827315693E+000
-1.0948348E+000	-1.878275081722272E+000	6.845699827063072E+000
-1.0958148E+000	-1.997867422592304E+000	6.855699826810451E+000
-1.0968205E+000	-2.105791368832186E+000	6.865699826557830E+000
-1.0978397E+000	-2.211107950657599E+000	6.875699826305208E+000
-1.0988519E+000	-2.322836341957245E+000	6.885699826052587E+000
-1.0998435E+000	-2.424307540266046E+000	6.895699825799966E+000
-1.1008449E+000	-2.530072631314386E+000	6.905699825547345E+000
-1.1018388E+000	-2.641107082987805E+000	6.915699825294723E+000
-1.1028550E+000	-2.753474952032153E+000	6.925699825042102E+000
-1.1038797E+000	-2.856491604819897E+000	6.935699824789481E+000
-1.1048448E+000	-2.956634296311271E+000	6.945699824536860E+000
-1.1058515E+000	-3.057377815867462E+000	6.955699824284238E+000
-1.1068169E+000	-3.158965246337978E+000	6.965699824031617E+000
-1.1077969E+000	-3.261067101524933E+000	6.975699823778996E+000
-1.1088194E+000	-3.362225674092763E+000	6.985699823526375E+000
-1.1098504E+000	-3.462377316421919E+000	6.995699823273753E+000
-1.1108230E+000	-3.560635405489137E+000	7.005699823021132E+000
-1.1118224E+000	-3.659140871216835E+000	7.015699822768511E+000
-1.1128151E+000	-3.759488433392505E+000	7.025699822515890E+000
-1.1137985E+000	-3.858198745797068E+000	7.035699822263268E+000
-1.1148337E+000	-3.954893853929301E+000	7.045699822010647E+000
-1.1158257E+000	-4.053244115163879E+000	7.055699821758026E+000
-1.1168206E+000	-4.149069890793804E+000	7.065699821505405E+000
-1.1178409E+000	-4.245786087794436E+000	7.075699821252783E+000
-1.1188666E+000	-4.341256709976328E+000	7.085699821000162E+000
-1.1198117E+000	-4.437010249743860E+000	7.095699820747541E+000
-1.1208036E+000	-4.533825320502125E+000	7.105699820494920E+000
-1.1218262E+000	-4.630661127467945E+000	7.115699820242298E+000
-1.1228020E+000	-4.730131331003378E+000	7.125699819989677E+000
-1.1238097E+000	-4.824287879384208E+000	7.135699819737056E+000
-1.1248152E+000	-4.918712964074487E+000	7.145699819484435E+000
-1.1258124E+000	-5.013196097479899E+000	7.155699819231813E+000
-1.1268634E+000	-5.109216304702876E+000	7.165699818979192E+000
-1.1278722E+000	-5.204384793010013E+000	7.175699818726571E+000
-1.1288502E+000	-5.296459005524696E+000	7.185699818473950E+000
-1.1298505E+000	-5.392350044101462E+000	7.195699818221328E+000
-1.1308678E+000	-5.489069555782599E+000	7.205699817968707E+000
-1.1318563E+000	-5.583074557698423E+000	7.215699817716086E+000
-1.1328385E+000	-5.677430581715338E+000	7.225699817463465E+000
-1.1338209E+000	-5.770783450868375E+000	7.235699817210843E+000
-1.1348391E+000	-5.864994941486238E+000	7.245699816958222E+000
-1.1358458E+000	-5.957900796499487E+000	7.255699816705601E+000
-1.1368693E+000	-6.049637704259808E+000	7.265699816452980E+000
-1.1378304E+000	-6.144980844938075E+000	7.275699816200358E+000
-1.1388425E+000	-6.237834146453267E+000	7.285699815947737E+000
-1.1398394E+000	-6.334134541451931E+000	7.295699815695116E+000
-1.1408439E+000	-6.428019382887385E+000	7.305699815442495E+000
-1.1418570E+000	-6.518869220796518E+000	7.315699815189873E+000
-1.1428689E+000	-6.609605996145149E+000	7.325699814937252E+000
-1.1438764E+000	-6.700864122559608E+000	7.335699814684631E+000
-1.1448270E+000	-6.792095277044496E+000	7.345699814432010E+000
-1.1458802E+000	-6.881960006637691E+000	7.355699814179388E+000
-1.1468613E+000	-6.971891598155082E+000	7.365699813926767E+000
-1.1478596E+000	-7.064029153022481E+000	7.375699813674146E+000
-1.1488312E+000	-7.153584351556148E+000	7.385699813421525E+000
-1.1498260E+000	-7.243812460038384E+000	7.395699813168903E+000
-1.1508646E+000	-7.334254060354425E+000	7.405699812916282E+000
-1.1518319E+000	-7.425367071396749E+000	7.415699812663661E+000
-1.1528735E+000	-7.516397324287226E+000	7.425699812411040E+000
-1.1538887E+000	-7.607045950161080E+000	7.435699812158418E+000
-1.1548668E+000	-7.699128886891728E+000	7.445699811905797E+000
-1.1559116E+000	-7.790623858984929E+000	7.455699811653176E+000
-1.1568599E+000	-7.880067954460742E+000	7.465699811400555E+000
-1.1578962E+000	-7.968904174864250E+000	7.475699811147933E+000
-1.1588625E+000	-8.056856258875797E+000	7.485699810895312E+000
-1.1598330E+000	-8.146453060209723E+000	7.495699810642691E+000
-1.1608481E+000	-8.236481746037754E+000	7.505699810390070E+000
-1.1618835E+000	-8.324742420679968E+000	7.515699810137448E+000
-1.1628253E+000	-8.414506117502825E+000	7.525699809884827E+000
-1.1638808E+000	-8.504094769557327E+000	7.535699809632206E+000
-1.1648579E+000	-8.593812997970296E+000	7.545699809379585E+000
-1.1658665E+000	-8.682466583947317E+000	7.555699809126963E+000
-1.1668562E+000	-8.770963541335490E+000	7.565699808874342E+000
-1.1678765E+000	-8.859740156266383E+000	7.575699808621721E+000
-1.1688715E+000	-8.947615342007708E+000	7.585699808369100E+000
-1.1698709E+000	-9.036456089052827E+000	7.595699808116478E+000
-1.1708541E+000	-9.124954197141856E+000	7.605699807863857E+000
-1.1718415E+000	-9.212174367573493E+000	7.615699807611236E+000
-1.1728662E+000	-9.302008965777020E+000	7.625699807358615E+000
-1.1738516E+000	-9.389133819275401E+000	7.635699807105993E+000
-1.1748433E+000	-9.477233012517289E+000	7.645699806853372E+000
-1.1758077E+000	-9.566103270484348E+000	7.655699806600751E+000
-1.1768429E+000	-9.653170564108406E+000	7.665699806348130E+000
-1.1778411E+000	-9.741300563845350E+000	7.675699806095508E+000
-1.1788508E+000	-9.827646642923384E+000	7.685699805842887E+000
-1.1798639E+000	-9.915164976484220E+000	7.695699805590266E+000
-1.1808652E+000	-1.000423944824271E+001	7.705699805337645E+000
-1.1818687E+000	-1.009109698401554E+001	7.715699805085023E+000
-1.1828465E+000	-1.017959123187594E+001	7.725699804832402E+000
-1.1838491E+000	-1.026624744385481E+001	7.735699804579781E+000
-1.1848323E+000	-1.035365602456856E+001	7.745699804327160E+000
-1.1858261E+000	-1.044229476650554E+001	7.755699804074538E+000
-1.1868402E+000	-1.052857897016732E+001	7.765699803821917E+000
-1.1878002E+000	-1.061551280236906E+001	7.775699803569296E+000
-1.1888430E+000	-1.070209689107203E+001	7.785699803316675E+000
-1.1897997E+000	-1.078831540958743E+001	7.795699803064053E+000
-1.1908189E+000	-1.087501786483656E+001	7.805699802811432E+000
-1.1933390E+000	-1.107740021337809E+001	7.830699802179879E+000
-1.1958214E+000	-1.127114595307243E+001	7.855699801548326E+000
-1.1968131E+000	-1.135661602020259E+001	7.865699801295705E+000
-1.1977870E+000	-1.144293460498250E+001	7.875699801043083E+000
-1.1988192E+000	-1.152568536334564E+001	7.885699800790462E+000
-1.1998171E+000	-1.161322276790932E+001	7.895699800537841E+000
-1.2008270E+000	-1.169957718004777E+001	7.905699800285220E+000
-1.2013284E+000	-1.174402570724487E+001	7.910599800161435E+000
-1.2012712E+000	-1.173671197891235E+001	7.911599800136173E+000
-1.2007135E+000	-1.171302130487228E+001	7.917099799997231E+000
-1.1997089E+000	-1.166862527032691E+001	7.927099799744610E+000
-1.1986450E+000	-1.161442491494942E+001	7.937099799491989E+000
-1.1976788E+000	-1.156497555805572E+001	7.947099799239368E+000
-1.1966710E+000	-1.151213491542470E+001	7.957099798986746E+000
-1.1957482E+000	-1.146205057038199E+001	7.967099798734125E+000
-1.1947001E+000	-1.140493452217837E+001	7.977099798481504E+000
-1.1936576E+000	-1.135101622756982E+001	7.987099798228883E+000
-1.1926732E+000	-1.129651464356314E+001	7.997099797976261E+000
-1.1916897E+000	-1.124019414517609E+001	8.007099797723640E+000
-1.1907098E+000	-1.118426155795650E+001	8.017099797471019E+000
-1.1897255E+000	-1.112751692947407E+001	8.027099797218398E+000
-1.1887231E+000	-1.107418148467936E+001	8.037099796965776E+000
-1.1877270E+000	-1.101400890946385E+001	8.047099796713155E+000
-1.1866833E+000	-1.095853633102440E+001	8.057099796460534E+000
-1.1857370E+000	-1.089984822024898E+001	8.067099796207913E+000
-1.1846689E+000	-1.084154820193845E+001	8.077099795955291E+000
-1.1837239E+000	-1.078280709269970E+001	8.087099795702670E+000
-1.1827649E+000	-1.072252791788844E+001	8.097099795450049E+000
-1.1817582E+000	-1.066389372613689E+001	8.107099795197428E+000
-1.1807240E+000	-1.060281970765851E+001	8.117099794944806E+000
-1.1797779E+000	-1.054338989158467E+001	8.127099794692185E+000
-1.1787354E+000	-1.048137974490720E+001	8.137099794439564E+000
-1.1777688E+000	-1.042166764371925E+001	8.147099794186943E+000
-1.1767411E+000	-1.036099983255065E+001	8.157099793934322E+000
-1.1757429E+000	-1.029897275153127E+001	8.167099793681700E+000
-1.1747639E+000	-1.023784632401330E+001	8.177099793429079E+000
-1.1737275E+000	-1.017606611715419E+001	8.187099793176458E+000
-1.1727729E+000	-1.011255519837141E+001	8.197099792923837E+000
-1.1718012E+000	-1.005121651540205E+001	8.207099792671215E+000
-1.1707311E+000	-9.987758975889932E+000	8.217099792418594E+000
-1.1697584E+000	-9.924477608667459E+000	8.227099792165973E+000
-1.1687706E+000	-9.859817353387626E+000	8.237099791913352E+000
-1.1677430E+000	-9.798019698096596E+000	8.247099791660730E+000
-1.1667670E+000	-9.734844523171603E+000	8.257099791408109E+000
-1.1657456E+000	-9.669990544517796E+000	8.267099791155488E+000
-1.1647590E+000	-9.607097938656807E+000	8.277099790902867E+000
-1.1637715E+000	-9.542242902848422E+000	8.287099790650245E+000
-1.1628041E+000	-9.478873385323382E+000	8.297099790397624E+000
-1.1617476E+000	-9.412888582381882E+000	8.307099790145003E+000
-1.1607453E+000	-9.348282146784953E+000	8.317099789892382E+000
-1.1597270E+000	-9.283745922148213E+000	8.327099789639760E+000
-1.1587839E+000	-9.217779082556561E+000	8.337099789387139E+000
-1.1577551E+000	-9.152130540874282E+000	8.347099789134518E+000
-1.1567539E+000	-9.088548920220802E+000	8.357099788881897E+000
-1.1557587E+000	-9.023324381146125E+000	8.367099788629275E+000
-1.1547606E+000	-8.958398845460660E+000	8.377099788376654E+000
-1.1537530E+000	-8.893086074954880E+000	8.387099788124033E+000
-1.1527655E+000	-8.824451814922980E+000	8.397099787871412E+000
-1.1517417E+000	-8.760851833555417E+000	8.407099787618790E+000
-1.1507500E+000	-8.691987353066594E+000	8.417099787366169E+000
-1.1497073E+000	-8.627115895350784E+000	8.427099787113548E+000
-1.1486827E+000	-8.559859275817871E+000	8.437099786860927E+000
-1.1477928E+000	-8.492832369274524E+000	8.447099786608305E+000
-1.1467352E+000	-8.428225596745776E+000	8.457099786355684E+000
-1.1457435E+000	-8.358354982402602E+000	8.467099786103063E+000
-1.1447877E+000	-8.294685209790870E+000	8.477099785850442E+000
-1.1437598E+000	-8.228275894290846E+000	8.487099785597820E+000
-1.1427511E+000	-8.159977554447096E+000	8.497099785345199E+000
-1.1417636E+000	-8.092685085203897E+000	8.507099785092578E+000
-1.1407548E+000	-8.025252355469576E+000	8.517099784839957E+000
-1.1397355E+000	-7.957977554864385E+000	8.527099784587335E+000
-1.1387904E+000	-7.889766489466041E+000	8.537099784334714E+000
-1.1377614E+000	-7.824630483157065E+000	8.547099784082093E+000
-1.1367801E+000	-7.756949658609074E+000	8.557099783829472E+000
-1.1357704E+000	-7.690187558945674E+000	8.567099783576850E+000
-1.1347851E+000	-7.621977255576212E+000	8.577099783324229E+000
-1.1337572E+000	-7.553819632364627E+000	8.587099783071608E+000
-1.1327580E+000	-7.487040056122653E+000	8.597099782818987E+000
-1.1317420E+000	-7.418370311044953E+000	8.607099782566365E+000
-1.1307405E+000	-7.349435316191777E+000	8.617099782313744E+000
-1.1297359E+000	-7.284281088660180E+000	8.627099782061123E+000
-1.1287738E+000	-7.213897499359291E+000	8.637099781808502E+000
-1.1277471E+000	-7.147029428846293E+000	8.647099781555880E+000
-1.1267384E+000	-7.079189995510689E+000	8.657099781303259E+000
-1.1257093E+000	-7.007145896140059E+000	8.667099781050638E+000
-1.1247123E+000	-6.939076581348985E+000	8.677099780798017E+000
-1.1236707E+000	-6.869505817277542E+000	8.687099780545395E+000
-1.1227024E+000	-6.802355006337166E+000	8.697099780292774E+000
-1.1216629E+000	-6.734162472602407E+000	8.707099780040153E+000
-1.1206900E+000	-6.665916250397743E+000	8.717099779787532E+000
-1.1196783E+000	-6.597917752961294E+000	8.727099779534910E+000
-1.1187681E+000	-6.528647282057321E+000	8.737099779282289E+000
-1.1177051E+000	-6.458970342245337E+000	8.747099779029668E+000
-1.1166742E+000	-6.390742315186373E+000	8.757099778777047E+000
-1.1156876E+000	-6.323149964213357E+000	8.767099778524425E+000
-1.1147118E+000	-6.254144696311808E+000	8.777099778271804E+000
-1.1137040E+000	-6.188159763399085E+000	8.787099778019183E+000
-1.1126944E+000	-6.117847262157312E+000	8.797099777766562E+000
-1.1116855E+000	-6.049530636105288E+000	8.807099777513940E+000
-1.1107032E+000	-5.979288462549420E+000	8.817099777261319E+000
-1.1096616E+000	-5.911006915486497E+000	8.827099777008698E+000
-1.1087292E+000	-5.842566993501432E+000	8.837099776756077E+000
-1.1077377E+000	-5.772413085318263E+000	8.847099776503455E+000
-1.1067479E+000	-5.706728872739582E+000	8.857099776250834E+000
-1.1057115E+000	-5.638500759171095E+000	8.867099775998213E+000
-1.1047153E+000	-5.568629198604150E+000	8.877099775745592E+000
-1.1037322E+000	-5.498298698001413E+000	8.887099775492970E+000
-1.1027287E+000	-5.430582961688419E+000	8.897099775240349E+000
-1.1016859E+000	-5.363273276223055E+000	8.907099774987728E+000
-1.1007420E+000	-5.294779908739827E+000	8.917099774735107E+000
-1.0997100E+000	-5.226410323960913E+000	8.927099774482485E+000
-1.0987012E+000	-5.155160997890746E+000	8.937099774229864E+000
-1.0977296E+000	-5.087109657211435E+000	8.947099773977243E+000
-1.0967079E+000	-5.018951984329341E+000	8.957099773724622E+000
-1.0956939E+000	-4.949875665621590E+000	8.967099773472000E+000
-1.0947139E+000	-4.879615875167957E+000	8.977099773219379E+000
-1.0937126E+000	-4.815486149241522E+000	8.987099772966758E+000
-1.0927429E+000	-4.746410421613174E+000	8.997099772714137E+000
-1.0917363E+000	-4.676079687558925E+000	9.007099772461515E+000
-1.0907320E+000	-4.606667804221289E+000	9.017099772208894E+000
-1.0897455E+000	-4.538192326409927E+000	9.027099771956273E+000
-1.0887483E+000	-4.468373697251074E+000	9.037099771703652E+000
-1.0877481E+000	-4.402530749638863E+000	9.047099771451030E+000
-1.0837269E+000	-4.169939418219812E+000	9.087099770440545E+000
-1.0827540E+000	-4.101271617329771E+000	9.097099770187924E+000
-1.0817593E+000	-4.033847475217442E+000	9.107099769935303E+000
-1.0807652E+000	-3.965797560496469E+000	9.117099769682682E+000
-1.0797068E+000	-3.898320425094819E+000	9.127099769430060E+000
-1.0787275E+000	-3.829942169288785E+000	9.137099769177439E+000
-1.0777475E+000	-3.761283224241595E+000	9.147099768924818E+000
-1.0767133E+000	-3.694572571665041E+000	9.157099768672197E+000
-1.0757375E+000	-3.625403218178281E+000	9.167099768419575E+000
-1.0747129E+000	-3.558021224000385E+000	9.177099768166954E+000
-1.0737422E+000	-3.490687074139704E+000	9.187099767914333E+000
-1.0727112E+000	-3.422418298820638E+000	9.197099767661712E+000
-1.0716994E+000	-3.355933711967527E+000	9.207099767409090E+000
-1.0707339E+000	-3.287854156767324E+000	9.217099767156469E+000
-1.0697368E+000	-3.220548148163478E+000	9.227099766903848E+000
-1.0687059E+000	-3.153747553833651E+000	9.237099766651227E+000
-1.0677450E+000	-3.086662525518058E+000	9.247099766398605E+000
-1.0667287E+000	-3.019810433396024E+000	9.257099766145984E+000
-1.0657241E+000	-2.952107250069570E+000	9.267099765893363E+000
-1.0647621E+000	-2.885899944230893E+000	9.277099765640742E+000
-1.0637512E+000	-2.819228237287867E+000	9.287099765388120E+000
-1.0627223E+000	-2.752171324359050E+000	9.297099765135499E+000
-1.0617592E+000	-2.686596393585193E+000	9.307099764882878E+000
-1.0607886E+000	-2.620062430078782E+000	9.317099764630257E+000
-1.0597587E+000	-2.553745656377728E+000	9.327099764377635E+000
-1.0587510E+000	-2.487503193939716E+000	9.337099764125014E+000
-1.0577390E+000	-2.421834765623007E+000	9.347099763872393E+000
-1.0567185E+000	-2.356146652872368E+000	9.357099763619772E+000
-1.0557609E+000	-2.290213295362051E+000	9.367099763367150E+000
-1.0547489E+000	-2.225830691142200E+000	9.377099763114529E+000
-1.0537571E+000	-2.160169190209771E+000	9.387099762861908E+000
-1.0527802E+000	-2.095090654782116E+000	9.397099762609287E+000
-1.0517608E+000	-2.030789163377543E+000	9.407099762356665E+000
-1.0507562E+000	-1.965341391248835E+000	9.417099762104044E+000
-1.0497570E+000	-1.901804911697070E+000	9.427099761851423E+000
-1.0487250E+000	-1.835989801006182E+000	9.437099761598802E+000
-1.0477057E+000	-1.771753876159586E+000	9.447099761346180E+000
-1.0467361E+000	-1.708316207242508E+000	9.457099761093559E+000
-1.0457178E+000	-1.644186255004668E+000	9.467099760840938E+000
-1.0446762E+000	-1.581762578752299E+000	9.477099760588317E+000
-1.0437076E+000	-1.518501652301181E+000	9.487099760335695E+000
-1.0427233E+000	-1.455942002539000E+000	9.497099760083074E+000
-1.0417084E+000	-1.395049830588194E+000	9.507099759830453E+000
-1.0407515E+000	-1.332179231155248E+000	9.517099759577832E+000
-1.0397375E+000	-1.271709242835641E+000	9.527099759325210E+000
-1.0387170E+000	-1.210601516792341E+000	9.537099759072589E+000
-1.0377188E+000	-1.149453140588262E+000	9.547099758819968E+000
-1.0367165E+000	-1.090131250934462E+000	9.557099758567347E+000
-1.0357023E+000	-1.030136350128383E+000	9.567099758314725E+000
-1.0347276E+000	-9.713901025243104E-001	9.577099758062104E+000
-1.0337019E+000	-9.131704698213250E-001	9.587099757809483E+000
-1.0327365E+000	-8.552156835794449E-001	9.597099757556862E+000
-1.0317237E+000	-7.989372532918182E-001	9.607099757304240E+000
-1.0307149E+000	-7.421730501163299E-001	9.617099757051619E+000
-1.0297337E+000	-6.878658936669382E-001	9.627099756798998E+000
-1.0287229E+000	-6.338766637361690E-001	9.637099756546377E+000
-1.0277311E+000	-5.801806628911024E-001	9.647099756293755E+000
-1.0267489E+000	-5.290582325930382E-001	9.657099756041134E+000
-1.0257676E+000	-4.780346970073879E-001	9.667099755788513E+000
-1.0247705E+000	-4.289542050618254E-001	9.677099755535892E+000
-1.0237681E+000	-3.817584419157338E-001	9.687099755283271E+000
-1.0227636E+000	-3.362178103480877E-001	9.697099755030649E+000
-1.0217602E+000	-2.927985539038969E-001	9.707099754778028E+000
-1.0207704E+000	-2.511916060595674E-001	9.717099754525407E+000
-1.0197394E+000	-2.128188643578646E-001	9.727099754272786E+000
-1.0187403E+000	-1.767106531446594E-001	9.737099754020164E+000
-1.0177867E+000	-1.434869142378572E-001	9.747099753767543E+000
-1.0167600E+000	-1.143735184191931E-001	9.757099753514922E+000
-1.0157830E+000	-8.718018941322522E-002	9.767099753262301E+000
-1.0148050E+000	-6.315573298424046E-002	9.777099753009679E+000
-1.0122836E+000	-1.924984532104862E-002	9.802099752378126E+000
-1.0097783E+000	1.965947576940780E-002	9.827099751746573E+000
-1.0087717E+000	3.550396852046520E-002	9.837099751493952E+000
-1.0077523E+000	5.261732635941985E-002	9.847099751241331E+000
-1.0067233E+000	7.128910010861669E-002	9.857099750988709E+000
-1.0057390E+000	9.342436749850336E-002	9.867099750736088E+000
-1.0047462E+000	1.173850045824010E-001	9.877099750483467E+000
-1.0037766E+000	1.444515397047832E-001	9.887099750230846E+000
-1.0027679E+000	1.750198932261113E-001	9.897099749978224E+000
-1.0017793E+000	2.076793513907544E-001	9.907099749725603E+000
-1.0007483E+000	2.443103789895157E-001	9.917099749472982E+000
-9.9978614E-001	2.828743836273349E-001	9.927099749220361E+000
-9.9879652E-001	3.250418206832055E-001	9.937099748967739E+000
-9.9777186E-001	3.708866470389904E-001	9.947099748715118E+000
-9.9672496E-001	4.178033760076197E-001	9.957099748462497E+000
-9.9577028E-001	4.689038925700735E-001	9.967099748209876E+000
-9.9474984E-001	5.210850688939299E-001	9.977099747957254E+000
-9.9374515E-001	5.761348796077108E-001	9.987099747704633E+000
-9.9278104E-001	6.339872283861041E-001	9.997099747452012E+000
-9.9175107E-001	6.921136796267504E-001	1.000709974719939E+001
-9.8921889E-001	8.521172168234834E-001	1.003209974656784E+001
-9.8675621E-001	1.015258176148766E+000	1.005709974593628E+001
-9.8577613E-001	1.082625991147430E+000	1.006709974568366E+001
-9.8482877E-001	1.149497363302446E+000	1.007709974543104E+001
-9.8376054E-001	1.217651118213942E+000	1.008709974517842E+001
-9.8274231E-001	1.286884166093339E+000	1.009709974492580E+001
-9.8174953E-001	1.355313532571828E+000	1.010709974467318E+001
-9.8077369E-001	1.425396213307979E+000	1.011709974442056E+001
-9.7974676E-001	1.495657304922741E+000	1.012709974416794E+001
-9.7875613E-001	1.565107696275747E+000	1.013709974391531E+001
-9.7777081E-001	1.635160336581373E+000	1.014709974366269E+001
-9.7676414E-001	1.705958372395915E+000	1.015709974341007E+001
-9.7578281E-001	1.777330443676981E+000	1.016709974315745E+001
-9.7481972E-001	1.847748752476444E+000	1.017709974290483E+001
-9.7376645E-001	1.919654256146819E+000	1.018709974265221E+001
-9.7273546E-001	1.991125274449590E+000	1.019709974239959E+001
-9.7174782E-001	2.062449673811596E+000	1.020709974214697E+001
-9.7078359E-001	2.135420386162075E+000	1.021709974189434E+001
-9.6978551E-001	2.206405722639644E+000	1.022709974164172E+001
-9.6875024E-001	2.278899333129331E+000	1.023709974138910E+001
-9.6775538E-001	2.351131843816901E+000	1.024709974113648E+001
-9.6675605E-001	2.423159275410910E+000	1.025709974088386E+001
-9.6577907E-001	2.495396890367076E+000	1.026709974063124E+001
-9.6474606E-001	2.566922811584341E+000	1.027709974037862E+001
-9.6380842E-001	2.639794625962793E+000	1.028709974012600E+001
-9.6269447E-001	2.712459537718038E+000	1.029709973987337E+001
-9.6179295E-001	2.784082637271952E+000	1.030709973962075E+001
-9.6080852E-001	2.857786268202808E+000	1.031709973936813E+001
-9.5976275E-001	2.929660010255041E+000	1.032709973911551E+001
-9.5877939E-001	3.002500004238566E+000	1.033709973886289E+001
-9.5775265E-001	3.075801223723438E+000	1.034709973861027E+001
-9.5677990E-001	3.147600733157660E+000	1.035709973835765E+001
-9.5576268E-001	3.221168530691018E+000	1.036709973810503E+001
-9.5478690E-001	3.293681633555224E+000	1.037709973785240E+001
-9.5380354E-001	3.366159529321720E+000	1.038709973759978E+001
-9.5275980E-001	3.438981848458447E+000	1.039709973734716E+001
-9.5177966E-001	3.510936936777512E+000	1.040709973709454E+001
-9.5080912E-001	3.584705906195765E+000	1.041709973684192E+001
-9.4976747E-001	3.656777555329931E+000	1.042709973658930E+001
-9.4878626E-001	3.729663506771132E+000	1.043709973633668E+001
-9.4779235E-001	3.803275308054367E+000	1.044709973608406E+001
-9.4678360E-001	3.876149054616711E+000	1.045709973583143E+001
-9.4580781E-001	3.950038053095376E+000	1.046709973557881E+001
-9.4476825E-001	4.022658462325765E+000	1.047709973532619E+001
-9.4378704E-001	4.095134590648968E+000	1.048709973507357E+001
-9.4274539E-001	4.167808516985875E+000	1.049709973482095E+001
-9.4178027E-001	4.240240649630643E+000	1.050709973456833E+001
-9.4076616E-001	4.313202920473302E+000	1.051709973431571E+001
-9.3980616E-001	4.384885439856205E+000	1.052709973406309E+001
-9.3875706E-001	4.457669463836481E+000	1.053709973381046E+001
-9.3778229E-001	4.530486439251234E+000	1.054709973355784E+001
-9.3677467E-001	4.601996110959220E+000	1.055709973330522E+001
-9.3580830E-001	4.675613272107313E+000	1.056709973305260E+001
-9.3478251E-001	4.747532804807054E+000	1.057709973279998E+001
-9.3377697E-001	4.820392425689434E+000	1.058709973254736E+001
-9.3279266E-001	4.892292678770104E+000	1.059709973229474E+001
-9.3179244E-001	4.964616708043557E+000	1.060709973204212E+001
-9.3077934E-001	5.037359867244987E+000	1.061709973178949E+001
-9.2980021E-001	5.108797057635270E+000	1.062709973153687E+001
-9.2877042E-001	5.182004567235751E+000	1.063709973128425E+001
-9.2782533E-001	5.254189437048332E+000	1.064709973103163E+001
-9.2680901E-001	5.325132318254983E+000	1.065709973077901E+001
-9.2580867E-001	5.398724655724259E+000	1.066709973052639E+001
-9.2478311E-001	5.469912976854415E+000	1.067709973027377E+001
-9.2380303E-001	5.542064265658482E+000	1.068709973002115E+001
-9.2275715E-001	5.614838906046458E+000	1.069709972976852E+001
-9.2178226E-001	5.686000859985764E+000	1.070709972951590E+001
-9.2072469E-001	5.762521664301559E+000	1.071709972926328E+001
-9.1973293E-001	5.833871054980477E+000	1.072709972901066E+001
-9.1870403E-001	5.905956704169537E+000	1.073709972875804E+001
-9.1777372E-001	5.977671816945090E+000	1.074709972850542E+001
-9.1671824E-001	6.048563347922453E+000	1.075709972825280E+001
-9.1573602E-001	6.121555170665189E+000	1.076709972800018E+001
-9.1474330E-001	6.192165992326238E+000	1.077709972774755E+001
-9.1378975E-001	6.262868711517925E+000	1.078709972749493E+001
-9.1276181E-001	6.335244333992421E+000	1.079709972724231E+001
-9.1174561E-001	6.405630753272135E+000	1.080709972698969E+001
-9.1074431E-001	6.477259041120639E+000	1.081709972673707E+001
-9.0972400E-001	6.548316826836924E+000	1.082709972648445E+001
-9.0871930E-001	6.619217047674809E+000	1.083709972623183E+001
-9.0776682E-001	6.690365170025160E+000	1.084709972597921E+001
-9.0674108E-001	6.760957883877893E+000	1.085709972572658E+001
-9.0574729E-001	6.832322944369565E+000	1.086709972547396E+001
-9.0475553E-001	6.902248472803187E+000	1.087709972522134E+001
-9.0378386E-001	6.972875399722028E+000	1.088709972496872E+001
-9.0276021E-001	7.044010829180493E+000	1.089709972471610E+001
-9.0174401E-001	7.113191101286153E+000	1.090709972446348E+001
-9.0080959E-001	7.183782346132745E+000	1.091709972421086E+001
-8.9974666E-001	7.253739213777919E+000	1.092709972395824E+001
-8.9875489E-001	7.323928276697828E+000	1.093709972370561E+001
-8.9776945E-001	7.393807523366462E+000	1.094709972345299E+001
-8.9674067E-001	7.463682083206059E+000	1.095709972320037E+001
-8.9574778E-001	7.534361243248007E+000	1.096709972294775E+001
-8.9475912E-001	7.604281589388819E+000	1.097709972269513E+001
-8.9373869E-001	7.674461389995292E+000	1.098709972244251E+001
-8.9273214E-001	7.743712099889933E+000	1.099709972218989E+001
-8.9172339E-001	7.811759946246986E+000	1.100709972193727E+001
-8.9075911E-001	7.881556254294210E+000	1.101709972168464E+001
-8.8972169E-001	7.949724441601177E+000	1.102709972143202E+001
-8.8870668E-001	8.017813889516773E+000	1.103709972117940E+001
-8.8774461E-001	8.086690180003686E+000	1.104709972092678E+001
-8.8674009E-001	8.154856703347649E+000	1.105709972067416E+001
-8.8573551E-001	8.223953271077775E+000	1.106709972042154E+001
-8.8475329E-001	8.290934172769425E+000	1.107709972016892E+001
-8.8371706E-001	8.359276952015065E+000	1.108709971991630E+001
-8.8274229E-001	8.426350022355763E+000	1.109709971966367E+001
-8.8177067E-001	8.492582393189380E+000	1.110709971941105E+001
-8.8075006E-001	8.561018401549944E+000	1.111709971915843E+001
-8.7971061E-001	8.626587790747493E+000	1.112709971890581E+001
-8.7871355E-001	8.693063605990702E+000	1.113709971865319E+001
-8.7772822E-001	8.760530336863482E+000	1.114709971840057E+001
-8.7669909E-001	8.825987603929363E+000	1.115709971814795E+001
-8.7574989E-001	8.892277479171767E+000	1.116709971789533E+001
-8.7473899E-001	8.957175302836653E+000	1.117709971764270E+001
-8.7373769E-001	9.022156739400522E+000	1.118709971739008E+001
-8.7274367E-001	9.087343367437541E+000	1.119709971713746E+001
-8.7176043E-001	9.151100950936495E+000	1.120709971688484E+001
-8.7077510E-001	9.216048028734022E+000	1.121709971663222E+001
-8.6976212E-001	9.279529877007008E+000	1.122709971637960E+001
-8.6876500E-001	9.343247103194386E+000	1.123709971612698E+001
-8.6775827E-001	9.407444228728650E+000	1.124709971587436E+001
-8.6676127E-001	9.469364397227778E+000	1.125709971562173E+001
-8.6577260E-001	9.532422426674145E+000	1.126709971536911E+001
-8.6472464E-001	9.594490848481684E+000	1.127709971511649E+001
-8.6379230E-001	9.655268327229578E+000	1.128709971486387E+001
-8.6280364E-001	9.715713527467527E+000	1.129709971461125E+001
-8.6176306E-001	9.776051128904015E+000	1.130709971435863E+001
-8.6080956E-001	9.836171354684552E+000	1.131709971410601E+001
-8.5976577E-001	9.895028707053910E+000	1.132709971385339E+001
-8.5878026E-001	9.954392820596723E+000	1.133709971360076E+001
-8.5778326E-001	1.001324195083650E+001	1.134709971334814E+001
-8.5680103E-001	1.007070858279866E+001	1.135709971309552E+001
-8.5582727E-001	1.012810714542869E+001	1.136709971284290E+001
-8.5482174E-001	1.018461683309745E+001	1.137709971259028E+001
-8.5376620E-001	1.024050647765398E+001	1.138709971233766E+001
-8.5279250E-001	1.029594616923072E+001	1.139709971208504E+001
-8.5178483E-001	1.034989542182950E+001	1.140709971183242E+001
-8.5077184E-001	1.040388467576774E+001	1.141709971157979E+001
-8.4981710E-001	1.045586333341072E+001	1.142709971132717E+001
-8.4882003E-001	1.050922017378946E+001	1.143709971107455E+001
-8.4783572E-001	1.056029672341214E+001	1.144709971082193E+001
-8.4678668E-001	1.060955936461693E+001	1.145709971056931E+001
-8.4577680E-001	1.066021552681930E+001	1.146709971031669E+001
-8.4476489E-001	1.070777129630252E+001	1.147709971006407E+001
-8.4378588E-001	1.075598265147877E+001	1.148709970981145E+001
-8.4274852E-001	1.080264858984285E+001	1.149709970955882E+001
-8.4175569E-001	1.084698671764797E+001	1.150709970930620E+001
-8.4081364E-001	1.089146708945442E+001	1.151709970905358E+001
-8.3975720E-001	1.093327591651021E+001	1.152709970880096E+001
-8.3873677E-001	1.097519402537083E+001	1.153709970854834E+001
-8.3627105E-001	1.109768801010571E+001	1.156209970791679E+001
-8.3373547E-001	1.120233597192501E+001	1.158709970728523E+001
-8.3278179E-001	1.123494787183074E+001	1.159709970703261E+001
-8.3173704E-001	1.126075857546599E+001	1.160709970677999E+001
-8.3079302E-001	1.128713520367941E+001	1.161709970652737E+001
-8.2974392E-001	1.131441250195110E+001	1.162709970627475E+001
-8.2876068E-001	1.133774955322347E+001	1.163709970602213E+001
-8.2774764E-001	1.135882557514647E+001	1.164709970576951E+001
-8.2677275E-001	1.137864744083748E+001	1.165709970551688E+001
-8.2575983E-001	1.139258685956406E+001	1.166709970526426E+001
-8.2476920E-001	1.140546568979821E+001	1.167709970501164E+001
-8.2378578E-001	1.141309802482527E+001	1.168709970475902E+001
-8.2278025E-001	1.142173637780877E+001	1.169709970450640E+001
-8.2178527E-001	1.142039378732443E+001	1.170709970425378E+001
-8.2077444E-001	1.142094168977613E+001	1.171709970400116E+001
-8.1978798E-001	1.141414036436211E+001	1.172709970374854E+001
-8.1875479E-001	1.140495377365089E+001	1.173709970349591E+001
-8.1774712E-001	1.139023683054581E+001	1.174709970324329E+001
-8.1672353E-001	1.136506193793490E+001	1.175709970299067E+001
-8.1575614E-001	1.133916280004718E+001	1.176709970273805E+001
-8.1474316E-001	1.130360038826868E+001	1.177709970248543E+001
-8.1371105E-001	1.126936278657786E+001	1.178709970223281E+001
-8.1273091E-001	1.122675001041756E+001	1.179709970198019E+001
-8.1171584E-001	1.117618888037072E+001	1.180709970172757E+001
-8.1070179E-001	1.112287105951040E+001	1.181709970147494E+001
-8.0978203E-001	1.106036699149351E+001	1.182709970122232E+001
-8.0871814E-001	1.098828771379264E+001	1.183709970096970E+001
-8.0769032E-001	1.090855804334085E+001	1.184709970071708E+001
-8.0675811E-001	1.081777005228737E+001	1.185709970046446E+001
-8.0573970E-001	1.072973717335200E+001	1.186709970021184E+001
-8.0475628E-001	1.062161854985689E+001	1.187709969995922E+001
-8.0376029E-001	1.050630844963928E+001	1.188709969970660E+001
-8.0278236E-001	1.038221833440992E+001	1.189709969945397E+001
-8.0170894E-001	1.024086854192948E+001	1.190709969920135E+001
-8.0071712E-001	1.007833612047966E+001	1.191709969894873E+001
-7.9974121E-001	9.893402660886437E+000	1.192709969869611E+001
-7.9873145E-001	9.691421171857229E+000	1.193709969844349E+001
-7.9771215E-001	9.478945445683280E+000	1.194709969819087E+001
-7.9674363E-001	9.251752927899389E+000	1.195709969793825E+001
-7.9574227E-001	9.000340281261373E+000	1.196709969768563E+001
-7.9473990E-001	8.717587829464065E+000	1.197709969743300E+001
-7.9375243E-001	8.421937552591174E+000	1.198709969718038E+001
-7.9274154E-001	8.108656647304755E+000	1.199709969692776E+001
-7.9175812E-001	7.781278258810431E+000	1.200709969667514E+001
-7.9071438E-001	7.464393715891561E+000	1.201709969642252E+001
-7.8976291E-001	7.165104274534542E+000	1.202709969616990E+001
-7.8876913E-001	6.855074003338835E+000	1.203709969591728E+001
-7.8775716E-001	6.562427801390484E+000	1.204709969566466E+001
-7.8676742E-001	6.284567936427074E+000	1.205709969541203E+001
-7.8578097E-001	6.030929230567494E+000	1.206709969515941E+001
-7.8475219E-001	5.779710882653816E+000	1.207709969490679E+001
-7.8373492E-001	5.519730101856960E+000	1.208709969465417E+001
-7.8278553E-001	5.295099452137961E+000	1.209709969440155E+001
-7.8174168E-001	5.098947830912138E+000	1.210709969414893E+001
-7.8072661E-001	4.932228384746452E+000	1.211709969389631E+001
-7.7978480E-001	4.759944141325036E+000	1.212709969364369E+001
-7.7879500E-001	4.595221387015471E+000	1.213709969339106E+001
-7.7778202E-001	4.450691402372399E+000	1.214709969313844E+001
-7.7675313E-001	4.324057695766292E+000	1.215709969288582E+001
-7.7573907E-001	4.214683673448050E+000	1.216709969263320E+001
-7.7319878E-001	3.907027667388320E+000	1.219209969200165E+001
-7.7078235E-001	3.627418601057599E+000	1.221709969137009E+001
-7.6980001E-001	3.519030486750950E+000	1.222709969111747E+001
-7.6878709E-001	3.434376908673187E+000	1.223709969086485E+001
-7.6777834E-001	3.375434894114740E+000	1.224709969061223E+001
-7.6679289E-001	3.311951250665736E+000	1.225709969035961E+001
-7.6575559E-001	3.241026104738317E+000	1.226709969010699E+001
-7.6476586E-001	3.178046045204020E+000	1.227709968985437E+001
-7.6378149E-001	3.113657944111379E+000	1.228709968960175E+001
-7.6277065E-001	3.051706029309173E+000	1.229709968934912E+001
-7.6177359E-001	2.994003803986651E+000	1.230709968909650E+001
-7.6076585E-001	2.908975839614881E+000	1.231709968884388E+001
-7.5977403E-001	2.831094579771175E+000	1.232709968859126E+001
-7.5878972E-001	2.783793011059370E+000	1.233709968833864E+001
-7.5778204E-001	2.737754112523475E+000	1.234709968808602E+001
-7.5677329E-001	2.692806939284017E+000	1.235709968783340E+001
-7.5575495E-001	2.643601178502049E+000	1.236709968758078E+001
-7.5477904E-001	2.604546500576877E+000	1.237709968732815E+001
-7.5377566E-001	2.554611218058415E+000	1.238709968707553E+001
-7.5275850E-001	2.486582690435981E+000	1.239709968682291E+001
-7.5177193E-001	2.434849068936384E+000	1.240709968657029E+001
-7.5079179E-001	2.379966167526121E+000	1.241709968631767E+001
-7.4977034E-001	2.344331115070332E+000	1.242709968606505E+001
-7.4881357E-001	2.288669282777441E+000	1.243709968581243E+001
-7.4779320E-001	2.261099672565862E+000	1.244709968555981E+001
-7.4682152E-001	2.228828146639806E+000	1.245709968530718E+001
-7.4582541E-001	2.196898910734395E+000	1.246709968505456E+001
-7.4479342E-001	2.158042372514807E+000	1.247709968480194E+001
-7.4381119E-001	2.115827759727839E+000	1.248709968454932E+001
-7.4271858E-001	2.078861095011241E+000	1.249709968429670E+001
-7.4180532E-001	2.038396891827396E+000	1.250709968404408E+001
-7.4073189E-001	2.009732272269003E+000	1.251709968379146E+001
-7.3973161E-001	1.984199292129941E+000	1.252709968353884E+001
-7.3874623E-001	1.959994773897861E+000	1.253709968328621E+001
-7.3776603E-001	1.916197567039895E+000	1.254709968303359E+001
-7.3673183E-001	1.887983160403884E+000	1.255709968278097E+001
-7.3577189E-001	1.863296460049849E+000	1.256709968252835E+001
-7.3477280E-001	1.833828003973604E+000	1.257709968227573E+001
-7.3376614E-001	1.805848669157257E+000	1.258709968202311E+001
-7.3274672E-001	1.781658117555910E+000	1.259709968177049E+001
-7.3176557E-001	1.761222870916964E+000	1.260709968151787E+001
-7.3076320E-001	1.741239879694255E+000	1.261709968126524E+001
-7.2972262E-001	1.709259721967912E+000	1.262709968101262E+001
-7.2870213E-001	1.691786698272661E+000	1.263709968076000E+001
-7.2778887E-001	1.682633351534601E+000	1.264709968050738E+001
-7.2673029E-001	1.657248786236682E+000	1.265709968025476E+001
-7.2575021E-001	1.634602076167039E+000	1.266709968000214E+001
-7.2475839E-001	1.592811415903281E+000	1.267709967974952E+001
-7.2375810E-001	1.564830303192140E+000	1.268709967949690E+001
-7.2277802E-001	1.541738506510030E+000	1.269709967924427E+001
-7.2176719E-001	1.529110595997835E+000	1.270709967899165E+001
-7.2075951E-001	1.509260154432724E+000	1.271709967873903E+001
-7.1974003E-001	1.495327088878383E+000	1.272709967848641E+001
-7.1879601E-001	1.483179605048566E+000	1.273709967823379E+001
-7.1775973E-001	1.481259564558666E+000	1.274709967798117E+001
-7.1674889E-001	1.472627307391834E+000	1.275709967772855E+001
-7.1571463E-001	1.449789920200903E+000	1.276709967747593E+001
-7.1470368E-001	1.430794267915195E+000	1.277709967722330E+001
-7.1372151E-001	1.427805588063272E+000	1.278709967697068E+001
-7.1276587E-001	1.415502779392739E+000	1.279709967671806E+001
-7.1174538E-001	1.392799525211259E+000	1.280709967646544E+001
-7.1073556E-001	1.379811399202384E+000	1.281709967621282E+001
-7.0976603E-001	1.368697410863316E+000	1.282709967596020E+001
-7.0877856E-001	1.342867718802560E+000	1.283709967570758E+001
-7.0776659E-001	1.338531274658942E+000	1.284709967545496E+001
-7.0675677E-001	1.319290187002885E+000	1.285709967520233E+001
-7.0576918E-001	1.303730158445742E+000	1.286709967494971E+001
-7.0475727E-001	1.281980858908765E+000	1.287709967469709E+001
-7.0379949E-001	1.275204906550546E+000	1.288709967444447E+001
-7.0278227E-001	1.265595819283694E+000	1.289709967419185E+001
-7.0175856E-001	1.258237116866645E+000	1.290709967393923E+001
-7.0079547E-001	1.233250027936370E+000	1.291709967368661E+001
-6.9978464E-001	1.220533934214878E+000	1.292709967343399E+001
-6.9879079E-001	1.208125117131408E+000	1.293709967318136E+001
-6.9775969E-001	1.190275903894673E+000	1.294709967292874E+001
-6.9677526E-001	1.175750970219579E+000	1.295709967267612E+001
-6.9577074E-001	1.154386748559776E+000	1.296709967242350E+001
-6.9475889E-001	1.135521842994631E+000	1.297709967217088E+001
-6.9379258E-001	1.124322971329093E+000	1.298709967191826E+001
-6.9277316E-001	1.113998496491046E+000	1.299709967166564E+001
-6.9177496E-001	1.098194727984571E+000	1.300709967141302E+001
-6.9076312E-001	1.096484853472152E+000	1.301709967116039E+001
-6.8974799E-001	1.075477374303676E+000	1.302709967090777E+001
-6.8877006E-001	1.053371213583485E+000	1.303709967065515E+001
-6.8771237E-001	1.040061611682184E+000	1.304709967040253E+001
-6.8676734E-001	1.044191353540462E+000	1.305709967014991E+001
-6.8573844E-001	1.042688179450735E+000	1.306709966989729E+001
-6.8474984E-001	1.031471751526830E+000	1.307709966964467E+001
-6.8375587E-001	1.018038427250261E+000	1.308709966939205E+001
-6.8271428E-001	1.011978055764407E+000	1.309709966913942E+001
-6.8172789E-001	1.017776959161794E+000	1.310709966888680E+001
-6.8073505E-001	1.009139444161626E+000	1.311709966863418E+001
-6.7972833E-001	1.004361394068438E+000	1.312709966838156E+001
-6.7876834E-001	9.902816894981612E-001	1.313709966812894E+001
-6.7774057E-001	9.974637674167770E-001	1.314709966787632E+001
-6.7678165E-001	9.723318201075841E-001	1.315709966762370E+001
-6.7575604E-001	9.624807443469727E-001	1.316709966737108E+001
-6.7477149E-001	9.470867770206599E-001	1.317709966711845E+001
-6.7378294E-001	9.368047437423641E-001	1.318709966686583E+001
-6.7274445E-001	9.306012601074247E-001	1.319709966661321E+001
-6.7176878E-001	9.285009710842544E-001	1.320709966636059E+001
-6.7074287E-001	9.244383586984573E-001	1.321709966610797E+001
-6.6974157E-001	9.151878420056594E-001	1.322709966585535E+001
-6.6875613E-001	9.079880940003537E-001	1.323709966560273E+001
-6.6778249E-001	9.116214868716064E-001	1.324709966535011E+001
-6.6676736E-001	9.076860385636500E-001	1.325709966509748E+001
-6.6575956E-001	9.130187129808789E-001	1.326709966484486E+001
-6.6478801E-001	8.914213114314626E-001	1.327709966459224E+001
-6.6373789E-001	8.827430492577513E-001	1.328709966433962E+001
-6.6277689E-001	8.727524794845110E-001	1.329709966408700E+001
-6.6173524E-001	8.690006825038132E-001	1.330709966383438E+001
-6.6077101E-001	8.637810429144261E-001	1.331709966358176E+001
-6.5976334E-001	8.515772077565398E-001	1.332709966332914E+001
-6.5876943E-001	8.455732267660423E-001	1.333709966307651E+001
-6.5777558E-001	8.459459652917287E-001	1.334709966282389E+001
-6.5670526E-001	8.298225256924843E-001	1.335709966257127E+001
-6.5574950E-001	8.112914754698721E-001	1.336709966231865E+001
-6.5479493E-001	8.210612779172770E-001	1.337709966206603E+001
-6.5373528E-001	8.171664507956151E-001	1.338709966181341E+001
-6.5274870E-001	8.115352246289458E-001	1.339709966156079E+001
-6.5174210E-001	8.063173391856271E-001	1.340709966130817E+001
-6.5074289E-001	7.950214356597982E-001	1.341709966105554E+001
-6.4975864E-001	7.805636279905830E-001	1.342709966080292E+001
-6.4875937E-001	7.916582094298503E-001	1.343709966055030E+001
-6.4776963E-001	7.827486248376481E-001	1.344709966029768E+001
-6.4672482E-001	7.672274756866222E-001	1.345709966004506E+001
-6.4571720E-001	7.683950305605958E-001	1.346709965979244E+001
-6.4473814E-001	7.579416438626740E-001	1.347709965953982E+001
-6.4371657E-001	7.591816555812105E-001	1.348709965928720E+001
-6.4269406E-001	7.576537130710999E-001	1.349709965903457E+001
-6.4174789E-001	7.509786019929594E-001	1.350709965878195E+001
-6.4078265E-001	7.477956027206467E-001	1.351709965852933E+001
-6.3976645E-001	7.466809893958297E-001	1.352709965827671E+001
-6.3871634E-001	7.435580684492997E-001	1.353709965802409E+001
-6.3773096E-001	7.346572728517167E-001	1.354709965777147E+001
-6.3672858E-001	7.425000038411882E-001	1.355709965751885E+001
-6.3575906E-001	7.511535109434710E-001	1.356709965726623E+001
-6.3473964E-001	7.415585132419267E-001	1.357709965701360E+001
-6.3375956E-001	7.369606428676203E-001	1.358709965676098E+001
-6.3278586E-001	7.289377801741210E-001	1.359709965650836E+001
-6.3177812E-001	7.200546875699549E-001	1.360709965625574E+001
-6.3076413E-001	7.213088158104171E-001	1.361709965600312E+001
-6.2976164E-001	7.186680851607701E-001	1.362709965575050E+001
-6.2874234E-001	7.100658559550865E-001	1.363709965549788E+001
-6.2775052E-001	7.080415730985514E-001	1.364709965524526E+001
-6.2675345E-001	7.038782317087895E-001	1.365709965499263E+001
-6.2575948E-001	7.079585707849967E-001	1.366709965474001E+001
-6.2476665E-001	7.039577119673304E-001	1.367709965448739E+001
-6.2379086E-001	6.910207735167582E-001	1.368709965423477E+001
-6.2276095E-001	6.800887002092296E-001	1.369709965398215E+001
-6.2176710E-001	6.756021135176216E-001	1.370709965372953E+001
-6.2077308E-001	6.676286957226711E-001	1.371709965347691E+001
-6.1978340E-001	6.671853209845748E-001	1.372709965322429E+001
-6.1879277E-001	6.579189041836386E-001	1.373709965297166E+001
-6.1776811E-001	6.607186420717195E-001	1.374709965271904E+001
-6.1678576E-001	6.607645682266217E-001	1.375709965246642E+001
-6.1578870E-001	6.667560786008844E-001	1.376709965221380E+001
-6.1478525E-001	6.665335359155344E-001	1.377709965196118E+001
-6.1375535E-001	6.690241578552465E-001	1.378709965170856E+001
-6.1275184E-001	6.663728000906630E-001	1.379709965145594E+001
-6.1179286E-001	6.679642552820351E-001	1.380709965120332E+001
-6.1077571E-001	6.617343293296001E-001	1.381709965095069E+001
-6.0977548E-001	6.567089491420308E-001	1.382709965069807E+001
-6.0875720E-001	6.601057436524176E-001	1.383709965044545E+001
-6.0773987E-001	6.603901223796953E-001	1.384709965019283E+001
-6.0677886E-001	6.515087306292529E-001	1.385709964994021E+001
-6.0572767E-001	6.562550112915524E-001	1.386709964968759E+001
-6.0479641E-001	6.615223142628874E-001	1.387709964943497E+001
-6.0376537E-001	6.649755981440366E-001	1.388709964918235E+001
-6.0277355E-001	6.642478621668300E-001	1.389709964892972E+001
-6.0176057E-001	6.608758422856518E-001	1.390709964867710E+001
-6.0076779E-001	6.603547576814943E-001	1.391709964842448E+001
-5.9978443E-001	6.596164316352890E-001	1.392709964817186E+001
-5.9876823E-001	6.518425988033432E-001	1.393709964791924E+001
-5.9778607E-001	6.464375194369105E-001	1.394709964766662E+001
-5.9679008E-001	6.406526208544800E-001	1.395709964741400E+001
-5.9578872E-001	6.378758950158971E-001	1.396709964716138E+001
-5.9481287E-001	6.218089348533109E-001	1.397709964690876E+001
-5.9382099E-001	6.142382135407827E-001	1.398709964665613E+001
-5.9277195E-001	6.079199345678952E-001	1.399709964640351E+001
-5.9180671E-001	5.896237957705237E-001	1.400709964615089E+001
-5.9078956E-001	5.945908827707171E-001	1.401709964589827E+001
-5.8978599E-001	5.878027146164757E-001	1.402709964564565E+001
-5.8881229E-001	5.965868862242363E-001	1.403709964539303E+001
-5.8779830E-001	6.012253728177805E-001	1.404709964514041E+001
-5.8677143E-001	5.890055909856333E-001	1.405709964488779E+001
-5.8572447E-001	5.917363955328874E-001	1.406709964463516E+001
-5.8479631E-001	5.976449458652926E-001	1.407709964438254E+001
-5.8376747E-001	5.989926261827367E-001	1.408709964412992E+001
-5.8275127E-001	5.951154809962560E-001	1.409709964387730E+001
-5.8172661E-001	5.857342350710608E-001	1.410709964362468E+001
-5.8075601E-001	5.813218272394618E-001	1.411709964337206E+001
-5.7977909E-001	5.652266274102873E-001	1.412709964311944E+001
-5.7872158E-001	5.439577263573003E-001	1.413709964286682E+001
-5.7777333E-001	5.438411265818623E-001	1.414709964261419E+001
-5.7679111E-001	5.476441463041652E-001	1.415709964236157E+001
-5.7577276E-001	5.414529921383506E-001	1.416709964210895E+001
-5.7477993E-001	5.409054351039266E-001	1.417709964185633E+001
-5.7375741E-001	5.337710138410330E-001	1.418709964160371E+001
-5.7276988E-001	5.412816581212834E-001	1.419709964135109E+001
-5.7177168E-001	5.498857044925316E-001	1.420709964109847E+001
-5.7074279E-001	5.464836824167945E-001	1.421709964084585E+001
-5.6977969E-001	5.390631023587473E-001	1.422709964059322E+001
-5.6872642E-001	5.276505781544589E-001	1.423709964034060E+001
-5.6778550E-001	5.295335406747963E-001	1.424709964008798E+001
-5.6675977E-001	5.358377080928159E-001	1.425709963983536E+001
-5.6578177E-001	5.251564413516088E-001	1.426709963958274E+001
-5.6480801E-001	5.056097588708832E-001	1.427709963933012E+001
-5.6377381E-001	4.947536191903055E-001	1.428709963907750E+001
-5.6276077E-001	4.860294935448710E-001	1.429709963882488E+001
-5.6175411E-001	4.831043939209660E-001	1.430709963857225E+001
-5.6075817E-001	4.787803073931078E-001	1.431709963831963E+001
-5.5977917E-001	4.792289693788128E-001	1.432709963806701E+001
-5.5879158E-001	4.899208335102418E-001	1.433709963781439E+001
-5.5773181E-001	4.851268913803839E-001	1.434709963756177E+001
-5.5682600E-001	4.848160234849086E-001	1.435709963730915E+001
-5.5582255E-001	4.909594420395376E-001	1.436709963705653E+001
-5.5480850E-001	4.851657666214244E-001	1.437709963680391E+001
-5.5378169E-001	4.896381972875048E-001	1.438709963655128E+001
-5.5279094E-001	4.835053648437480E-001	1.439709963629866E+001
-5.5184168E-001	4.711230759146736E-001	1.440709963604604E+001
-5.5079156E-001	4.740411510380618E-001	1.441709963579342E+001
-5.4983163E-001	4.703335003513445E-001	1.442709963554080E+001
-5.4879415E-001	4.767383876670568E-001	1.443709963528818E+001
-5.4782146E-001	4.827581893187012E-001	1.444709963503556E+001
-5.4679686E-001	4.748342108084938E-001	1.445709963478294E+001
-5.4583049E-001	4.794886394455622E-001	1.446709963453031E+001
-5.4482698E-001	4.802163685671994E-001	1.447709963427769E+001
-5.4380447E-001	4.778847597901610E-001	1.448709963402507E+001
-5.4279470E-001	4.822159183677299E-001	1.449709963377245E+001
-5.4179657E-001	4.854395533911893E-001	1.450709963351983E+001
-5.4078567E-001	4.901469097886633E-001	1.451709963326721E+001
-5.3980660E-001	4.946617693122910E-001	1.452709963301459E+001
-5.3880322E-001	5.021564846134021E-001	1.453709963276197E+001
-5.3779340E-001	5.110713773303579E-001	1.454709963250934E+001
-5.3679740E-001	5.084235651625554E-001	1.455709963225672E+001
-5.3578544E-001	5.043485421790859E-001	1.456709963200410E+001
-5.3478193E-001	5.131062463236375E-001	1.457709963175148E+001
-5.3375417E-001	5.144274473811201E-001	1.458709963149886E+001
-5.3283346E-001	5.170222746415298E-001	1.459709963124624E+001
-5.3177583E-001	5.135831218730268E-001	1.460709963099362E+001
-5.3079790E-001	5.106138391420227E-001	1.461709963074100E+001
-5.2978808E-001	5.193680104696110E-001	1.462709963048837E+001
-5.2879417E-001	5.146977225732483E-001	1.463709963023575E+001
-5.2779502E-001	5.146712513330094E-001	1.464709962998313E+001
-5.2680844E-001	5.286821173503982E-001	1.465709962973051E+001
-5.2578378E-001	5.260007766903279E-001	1.466709962947789E+001
-5.2475393E-001	5.301182104481619E-001	1.467709962922527E+001
-5.2375364E-001	5.256174574088757E-001	1.468709962897265E+001
-5.2276605E-001	5.080773601722388E-001	1.469709962872003E+001
-5.2180606E-001	4.893096523462903E-001	1.470709962846740E+001
-5.2080268E-001	4.845298631892838E-001	1.471709962821478E+001
-5.1977694E-001	4.822565404336094E-001	1.472709962796216E+001
-5.1880747E-001	4.737814855244427E-001	1.473709962770954E+001
-5.1779968E-001	4.633421977568029E-001	1.474709962745692E+001
-5.1681852E-001	4.762437963703032E-001	1.475709962720430E+001
-5.1581508E-001	4.767154228563117E-001	1.476709962695168E+001
-5.1479685E-001	4.736189808334335E-001	1.477709962669906E+001
-5.1379019E-001	4.634005070612255E-001	1.478709962644643E+001
-5.1286942E-001	4.528764259173652E-001	1.479709962619381E+001
-5.1184368E-001	4.567236200285461E-001	1.480709962594119E+001
-5.1073629E-001	4.520533018642019E-001	1.481709962568857E+001
-5.0975204E-001	4.577304228829853E-001	1.482709962543595E+001
-5.0878245E-001	4.714322001932008E-001	1.483709962518333E+001
-5.0775456E-001	4.705931606650773E-001	1.484709962493071E+001
-5.0676602E-001	4.469732006287424E-001	1.485709962467809E+001
-5.0571066E-001	4.418295088948492E-001	1.486709962442546E+001
-5.0476551E-001	4.424972171481296E-001	1.487709962417284E+001
-5.0371319E-001	4.494408296628141E-001	1.488709962392022E+001
-5.0278085E-001	4.531060527337516E-001	1.489709962366760E+001
-5.0177854E-001	4.446186229793581E-001	1.490709962341498E+001
-5.0076127E-001	4.291045640129616E-001	1.491709962316236E+001
-4.9973226E-001	4.216822699591940E-001	1.492709962290974E+001
-4.9872354E-001	4.223057900089775E-001	1.493709962265712E+001
-4.9772757E-001	4.235669616868516E-001	1.494709962240449E+001
-4.9673152E-001	4.414303083904088E-001	1.495709962215187E+001
-4.9572596E-001	4.531837910310266E-001	1.496709962189925E+001
-4.9475852E-001	4.453852304723114E-001	1.497709962164663E+001
-4.9374241E-001	4.509510815712741E-001	1.498709962139401E+001
-4.9278563E-001	4.457650072355239E-001	1.499709962114139E+001
-4.9172816E-001	4.541535265226333E-001	1.500709962088877E+001
-4.9079570E-001	4.522458281781949E-001	1.501709962063615E+001
-4.8976675E-001	4.478917216830371E-001	1.502709962038352E+001
-4.8873788E-001	4.524277867749342E-001	1.503709962013090E+001
-4.8774827E-001	4.533621917168302E-001	1.504709961987828E+001
-4.8675638E-001	4.601750856834581E-001	1.505709961962566E+001
-4.8573065E-001	4.658981536049422E-001	1.506709961937304E+001
-4.8476440E-001	4.554323714950872E-001	1.507709961912042E+001
-4.8372912E-001	4.531201903139150E-001	1.508709961886780E+001
-4.8273525E-001	4.623124033419637E-001	1.509709961861518E+001
-4.8175079E-001	4.616394348494314E-001	1.510709961836255E+001
-4.8072830E-001	4.663997959449055E-001	1.511709961810993E+001
-4.7973970E-001	4.633192355848035E-001	1.512709961785731E+001
-4.7877020E-001	4.533922252141771E-001	1.513709961760469E+001
-4.7778052E-001	4.467629991057862E-001	1.514709961735207E+001
-4.7677070E-001	4.473635632699970E-001	1.515709961709945E+001
-4.7577471E-001	4.414691794922367E-001	1.516709961684683E+001
-4.7475749E-001	4.359104174913631E-001	1.517709961659421E+001
-4.7376254E-001	4.254234489570896E-001	1.518709961634158E+001
-4.7272825E-001	4.431560770349794E-001	1.519709961608896E+001
-4.7174710E-001	4.472752646284377E-001	1.520709961583634E+001
-4.7076595E-001	4.360746909709050E-001	1.521709961558372E+001
-4.6976256E-001	4.375902324035357E-001	1.522709961533110E+001
-4.6875373E-001	4.349883592480577E-001	1.523709961507848E+001
-4.6775874E-001	4.383480071814532E-001	1.524709961482586E+001
-4.6675748E-001	4.512001470041778E-001	1.525709961457324E+001
-4.6575296E-001	4.585005769557853E-001	1.526709961432061E+001
-4.6475166E-001	4.540422306809973E-001	1.527709961406799E+001
-4.6379375E-001	4.549307388305248E-001	1.528709961381537E+001
-4.6275109E-001	4.640593463296283E-001	1.529709961356275E+001
-4.6173599E-001	4.570786461441063E-001	1.530709961331013E+001
-4.6075910E-001	4.606290555093446E-001	1.531709961305751E+001
-4.5977682E-001	4.492588984107382E-001	1.532709961280489E+001
-4.5873511E-001	4.340539589627764E-001	1.533709961255227E+001
-4.5778051E-001	4.174147150479266E-001	1.534709961229964E+001
-4.5678240E-001	4.321197753047779E-001	1.535709961204702E+001
-4.5577258E-001	4.222987278416356E-001	1.536709961179440E+001
-4.5474362E-001	4.072509696965854E-001	1.537709961154178E+001
-4.5376563E-001	4.023104437833860E-001	1.538709961128916E+001
-4.5281208E-001	4.050836191357430E-001	1.539709961103654E+001
-4.5033139E-001	4.066092904366574E-001	1.542209961040498E+001
-4.4773015E-001	3.941519083455205E-001	1.544709960977343E+001
-4.4679457E-001	4.083607752238301E-001	1.545709960952081E+001
-4.4572848E-001	4.026927963002703E-001	1.546709960926819E+001
-4.4478449E-001	3.988188688850256E-001	1.547709960901557E+001
-4.4378951E-001	3.861299446111354E-001	1.548709960876295E+001
-4.4275641E-001	3.888840907925952E-001	1.549709960851033E+001
-4.4175607E-001	3.716207178982196E-001	1.550709960825770E+001
-4.4075155E-001	3.434989233242574E-001	1.551709960800508E+001
-4.3979058E-001	3.359999012512471E-001	1.552709960775246E+001
-4.3878397E-001	3.395671063206258E-001	1.553709960749984E+001
-4.3778583E-001	3.364014801724524E-001	1.554709960724722E+001
-4.3676853E-001	3.348835029432351E-001	1.555709960699460E+001
-4.3577781E-001	3.593275175274671E-001	1.556709960674198E+001
-4.3478715E-001	3.581606140618949E-001	1.557709960648936E+001
-4.3375507E-001	3.598748711196498E-001	1.558709960623673E+001
-4.3270490E-001	3.535473579282162E-001	1.559709960598411E+001
-4.3175340E-001	3.503907288993826E-001	1.560709960573149E+001
-4.3077758E-001	3.512225215737197E-001	1.561709960547887E+001
-4.2971578E-001	3.506347342756495E-001	1.562709960522625E+001
-4.2876646E-001	3.431166095866109E-001	1.563709960497363E+001
-4.2774943E-001	3.306415168327046E-001	1.564709960472101E+001
-4.2672548E-001	3.292300394699117E-001	1.565719960446586E+001
-4.2576966E-001	3.439414757493613E-001	1.566709960421576E+001
-4.2477107E-001	3.512264737048785E-001	1.567729960395809E+001
-4.2379886E-001	3.687687725277131E-001	1.568729960370547E+001
-4.2275736E-001	3.579855238397927E-001	1.569729960345285E+001
-4.2173803E-001	3.587915026582786E-001	1.570729960320023E+001
-4.2075476E-001	3.578751086412628E-001	1.571729960294761E+001
-4.1976723E-001	3.596038454884867E-001	1.572729960269498E+001
-4.1878492E-001	3.544386656075309E-001	1.573729960244236E+001
-4.1772318E-001	3.536764856738364E-001	1.574729960218974E+001
-4.1675684E-001	3.331286343487194E-001	1.575729960193712E+001
-4.1571313E-001	3.291284199545368E-001	1.576729960168450E+001
-4.1477749E-001	3.159200379676710E-001	1.577729960143188E+001
-4.1374752E-001	3.211316861367477E-001	1.578729960117926E+001
-4.1274199E-001	3.222936745474332E-001	1.579729960092664E+001
-4.1177568E-001	3.096902247828739E-001	1.580729960067401E+001
-4.1077650E-001	3.072259827879158E-001	1.581729960042139E+001
-4.0971991E-001	3.130383578698259E-001	1.582729960016877E+001
-4.0871972E-001	3.152801435078607E-001	1.583729959991615E+001
-4.0776080E-001	3.090692104564781E-001	1.584729959966353E+001
-4.0670967E-001	3.147852887502980E-001	1.585729959941091E+001
-4.0574965E-001	3.182738503027318E-001	1.586729959915829E+001
-4.0471438E-001	3.222588630289669E-001	1.587729959890567E+001
-4.0374807E-001	3.213364554103477E-001	1.588729959865304E+001
-4.0273830E-001	3.122323550439141E-001	1.589729959840042E+001
-4.0183347E-001	3.227592439590292E-001	1.590629959817306E+001
-4.0140378E-001	3.198762834072113E-001	1.591059959806444E+001