Ewe/V	<I>/mA	time/s	
-4.0237752E-001	-8.567550033330917E-002	0.000000000000000E+000
-4.0303633E-001	-7.525429697879749E-002	2.749999930529157E-002
-4.0402916E-001	-6.346513280058602E-002	7.749999804218533E-002
-4.0504006E-001	-5.656938031488279E-002	1.274999967790791E-001
-4.0603605E-001	-5.190808892560494E-002	1.774999955159728E-001
-4.0700874E-001	-4.831763494466612E-002	2.274999942528666E-001
-4.0808010E-001	-4.559458627503499E-002	2.774999929897604E-001
-4.0963936E-001	-4.275560632555009E-002	3.574999909687904E-001
-4.1065875E-001	-4.090789248045812E-002	4.074999897056841E-001
-4.1162929E-001	-3.935886794028576E-002	4.574999884425779E-001
-4.1266876E-001	-3.796022674241262E-002	5.074999871794716E-001
-4.1368604E-001	-3.684864840815183E-002	5.574999859163654E-001
-4.1469479E-001	-3.585425653512142E-002	6.074999846532592E-001
-4.1561764E-001	-3.485836015790011E-002	6.574999833901529E-001
-4.1665077E-001	-3.403375602620468E-002	7.074999821270467E-001
-4.1766271E-001	-3.328830039094174E-002	7.574999808639404E-001
-4.1862375E-001	-3.259794812442521E-002	8.074999796008342E-001
-4.1968867E-001	-3.200223606459246E-002	8.574999783377280E-001
-4.2064333E-001	-3.141690367677563E-002	9.074999770746217E-001
-4.2162132E-001	-3.083567814987703E-002	9.574999758115155E-001
-4.2261526E-001	-3.026693416931847E-002	1.007499974548409E+000
-4.2366406E-001	-2.972295839783315E-002	1.057499973285303E+000
-4.2466152E-001	-2.929628726513089E-002	1.107499972022197E+000
-4.2561984E-001	-2.873810870197352E-002	1.157699970754038E+000
-4.2663833E-001	-2.835918842923324E-002	1.207599969493458E+000
-4.2767107E-001	-2.801715091579171E-002	1.257699968227826E+000
-4.2867520E-001	-2.770704866593926E-002	1.307699966964719E+000
-4.2964786E-001	-2.734110972637094E-002	1.357699965701613E+000
-4.3066511E-001	-2.700151748851776E-002	1.407699964438507E+000
-4.3163887E-001	-2.667268582067842E-002	1.457699963175401E+000
-4.3265715E-001	-2.640842426895951E-002	1.507699961912294E+000
-4.3367440E-001	-2.617436059733375E-002	1.557699960649188E+000
-4.3468633E-001	-2.597556013993368E-002	1.607699959386082E+000
-4.3566114E-001	-2.577349474584617E-002	1.657699958122976E+000
-4.3670067E-001	-2.549703860724417E-002	1.707699956859869E+000
-4.3767124E-001	-2.516234795028272E-002	1.757699955596763E+000
-4.3869168E-001	-2.493714949943954E-002	1.807699954333657E+000
-4.3963993E-001	-2.465757938895241E-002	1.857699953070551E+000
-4.4070911E-001	-2.446094327994310E-002	1.907699951807444E+000
-4.4165954E-001	-2.426719003253519E-002	1.957699950544338E+000
-4.4265029E-001	-2.408976807405622E-002	2.007699949281232E+000
-4.4364735E-001	-2.394979218176257E-002	2.057699948018126E+000
-4.4465724E-001	-2.381123534912521E-002	2.107699946755019E+000
-4.4569346E-001	-2.365689439035057E-002	2.157699945491913E+000
-4.4666198E-001	-2.345546979577878E-002	2.207699944228807E+000
-4.4765908E-001	-2.331316885452167E-002	2.257699942965701E+000
-4.4861796E-001	-2.317813350129194E-002	2.307699941702595E+000
-4.4968084E-001	-2.309713879151751E-002	2.357699940439488E+000
-4.5065984E-001	-2.300937680518940E-002	2.407699939176382E+000
-4.5167813E-001	-2.280332451832867E-002	2.457699937913276E+000
-4.5265505E-001	-2.266128650538757E-002	2.507699936650170E+000
-4.5366597E-001	-2.254835828811069E-002	2.557699935387063E+000
-4.5462698E-001	-2.245212788262435E-002	2.607699934123957E+000
-4.5564207E-001	-2.231829658073059E-002	2.657699932860851E+000
-4.5661473E-001	-2.219418547745733E-002	2.707699931597745E+000
-4.5768929E-001	-2.210039327447133E-002	2.757699930334638E+000
-4.5864925E-001	-2.207015897794107E-002	2.807699929071532E+000
-4.5969191E-001	-2.191796752029196E-002	2.857699927808426E+000
-4.6065831E-001	-2.182265293905161E-002	2.907699926545320E+000
-4.6166492E-001	-2.174239519216059E-002	2.957699925282213E+000
-4.6267998E-001	-2.164007545474711E-002	3.007699924019107E+000
-4.6368665E-001	-2.153893793432937E-002	3.057699922756001E+000
-4.6464661E-001	-2.145768207696236E-002	3.107699921492895E+000
-4.6568078E-001	-2.141925182486709E-002	3.157699920229788E+000
-4.6662486E-001	-2.128240591587705E-002	3.207699918966682E+000
-4.6761450E-001	-2.121272543229644E-002	3.257699917703576E+000
-4.6862963E-001	-2.114973094150496E-002	3.307699916440470E+000
-4.6963945E-001	-2.103866113962052E-002	3.357699915177363E+000
-4.7067577E-001	-2.093739599136081E-002	3.407699913914257E+000
-4.7163361E-001	-2.085336246872671E-002	3.457699912651151E+000
-4.7267208E-001	-2.083432445673408E-002	3.507699911388045E+000
-4.7368613E-001	-2.081459448500367E-002	3.557699910124938E+000
-4.7465882E-001	-2.071371484608217E-002	3.607699908861832E+000
-4.7566649E-001	-2.062662552473038E-002	3.657699907598726E+000
-4.7665295E-001	-2.053013420017014E-002	3.707699906335620E+000
-4.7765857E-001	-2.046708896738930E-002	3.757699905072514E+000
-4.7869173E-001	-2.044346571589506E-002	3.807699903809407E+000
-4.7964209E-001	-2.037167964347947E-002	3.857699902546301E+000
-4.8063919E-001	-2.027303354676673E-002	3.907699901283195E+000
-4.8165643E-001	-2.025286168834473E-002	3.957699900020089E+000
-4.8261851E-001	-2.016428872270305E-002	4.007699898756982E+000
-4.8361665E-001	-2.012704647818789E-002	4.057699897493876E+000
-4.8459575E-001	-2.019955579803703E-002	4.107699896230770E+000
-4.8563415E-001	-2.023102684998537E-002	4.157699894967664E+000
-4.8659307E-001	-2.012429795340051E-002	4.207699893704557E+000
-4.8763898E-001	-1.998000920543230E-002	4.257699892441451E+000
-4.8865509E-001	-1.987004860873440E-002	4.307699891178345E+000
-4.8968089E-001	-1.988145917938612E-002	4.357699889915239E+000
-4.9067047E-001	-1.978236118210824E-002	4.407699888652132E+000
-4.9166444E-001	-1.972173700859360E-002	4.457699887389026E+000
-4.9265090E-001	-1.965822342403795E-002	4.507699886125920E+000
-4.9366173E-001	-1.959594506856605E-002	4.557699884862814E+000
-4.9467471E-001	-1.976709445740126E-002	4.607699883599707E+000
-4.9570051E-001	-1.982902863744163E-002	4.657699882336601E+000
-4.9662966E-001	-1.953220597459690E-002	4.707699881073495E+000
-4.9766704E-001	-1.941987847331569E-002	4.757699879810389E+000
-4.9865139E-001	-1.942900155403621E-002	4.807699878547282E+000
-4.9966758E-001	-1.931783873415377E-002	4.857699877284176E+000
-5.0066364E-001	-1.927825973231212E-002	4.907699876021070E+000
-5.0162780E-001	-1.923339851028119E-002	4.957699874757964E+000
-5.0264609E-001	-1.919542974361249E-002	5.007699873494857E+000
-5.0363368E-001	-1.913682171531640E-002	5.057699872231751E+000
-5.0464451E-001	-1.916858802454685E-002	5.107699870968645E+000
-5.0565749E-001	-1.913041053598533E-002	5.157699869705539E+000
-5.0667691E-001	-1.910878479032324E-002	5.207699868442432E+000
-5.0768250E-001	-1.909081856892611E-002	5.257699867179326E+000
-5.0863713E-001	-1.905475155217570E-002	5.307699865916220E+000
-5.0963742E-001	-1.896670516752808E-002	5.357699864653114E+000
-5.1065356E-001	-1.889334288986264E-002	5.407699863390008E+000
-5.1169312E-001	-1.882524226352365E-002	5.457699862126901E+000
-5.1271456E-001	-1.877716795920775E-002	5.507699860863795E+000
-5.1368511E-001	-1.877436543280198E-002	5.557699859600689E+000
-5.1468110E-001	-1.877509801717541E-002	5.607699858337583E+000
-5.1568675E-001	-1.879616289321955E-002	5.657699857074476E+000
-5.1668483E-001	-1.872954299863150E-002	5.707699855811370E+000
-5.1766706E-001	-1.871758832647985E-002	5.757699854548264E+000
-5.1865673E-001	-1.862934365204566E-002	5.807699853285158E+000
-5.1966971E-001	-1.858316197198016E-002	5.857699852022051E+000
-5.2073580E-001	-1.855331646381977E-002	5.907699850758945E+000
-5.2167243E-001	-1.854339021870316E-002	5.957699849495839E+000
-5.2270979E-001	-1.853111245738406E-002	6.007699848232733E+000
-5.2367616E-001	-1.853154203423332E-002	6.057699846969626E+000
-5.2467316E-001	-1.848097886519365E-002	6.107699845706520E+000
-5.2573818E-001	-1.840139000193655E-002	6.157699844443414E+000
-5.2667588E-001	-1.835712046077892E-002	6.207699843180308E+000
-5.2772492E-001	-1.832725045150480E-002	6.257699841917201E+000
-5.2868700E-001	-1.830774671786156E-002	6.307699840654095E+000
-5.2962041E-001	-1.828087108528792E-002	6.357699839390989E+000
-5.3069174E-001	-1.825592416571453E-002	6.407699838127883E+000
-5.3165495E-001	-1.820974847241480E-002	6.457699836864776E+000
-5.3267002E-001	-1.820593558605418E-002	6.507699835601670E+000
-5.3362894E-001	-1.821374318010553E-002	6.557699834338564E+000
-5.3468651E-001	-1.815915295069478E-002	6.607699833075458E+000
-5.3569418E-001	-1.817431344857642E-002	6.657699831812351E+000
-5.3671676E-001	-1.814526345805029E-002	6.707699830549245E+000
-5.3770107E-001	-1.815299454136504E-002	6.757699829286139E+000
-5.3867382E-001	-1.816349849751633E-002	6.807699828023033E+000
-5.3973562E-001	-1.811181066592266E-002	6.857699826759927E+000
-5.4068810E-001	-1.812599597852328E-002	6.907699825496820E+000
-5.4170853E-001	-1.812437530046462E-002	6.957699824233714E+000
-5.4267907E-001	-1.809732654537236E-002	7.007699822970608E+000
-5.4368997E-001	-1.804307459301695E-002	7.057699821707502E+000
-5.4472834E-001	-1.808944280492142E-002	7.107699820444395E+000
-5.4570955E-001	-1.814138935016540E-002	7.157699819181289E+000
-5.4666734E-001	-1.802746161249363E-002	7.207699817918183E+000
-5.4767305E-001	-1.801677773646247E-002	7.257699816655077E+000
-5.4869866E-001	-1.806455354758152E-002	7.307699815391970E+000
-5.4965544E-001	-1.809519521797209E-002	7.357699814128864E+000
-5.5071193E-001	-1.810140157316780E-002	7.407699812865758E+000
-5.5169946E-001	-1.809308173660956E-002	7.457699811602652E+000
-5.5270827E-001	-1.812057972333775E-002	7.507699810339545E+000
-5.5370003E-001	-1.810418936872366E-002	7.557699809076439E+000
-5.5469292E-001	-1.815614485423318E-002	7.607699807813333E+000
-5.5568254E-001	-1.808364631573628E-002	7.657699806550227E+000
-5.5668706E-001	-1.803386383215658E-002	7.707699805287120E+000
-5.5765235E-001	-1.799728386147229E-002	7.757699804024014E+000
-5.5865896E-001	-1.792059270492584E-002	7.807699802760908E+000
-5.5969417E-001	-1.785580261774295E-002	7.857699801497802E+000
-5.6065094E-001	-1.783381449705412E-002	7.907699800234695E+000
-5.6167144E-001	-1.779416398171131E-002	7.957699798971589E+000
-5.6267065E-001	-1.777928103089199E-002	8.007699797708483E+000
-5.6367618E-001	-1.776333143977719E-002	8.057699796445377E+000
-5.6465948E-001	-1.774630945012046E-002	8.107699795182270E+000
-5.6566501E-001	-1.774672415599015E-002	8.157699793919164E+000
-5.6668544E-001	-1.770104877262690E-002	8.207699792656058E+000
-5.6765920E-001	-1.767310667869250E-002	8.257699791392952E+000
-5.6869346E-001	-1.768049819144865E-002	8.307699790129846E+000
-5.6965446E-001	-1.767440348717003E-002	8.357699788866739E+000
-5.7068545E-001	-1.765033205608935E-002	8.407699787603633E+000
-5.7167095E-001	-1.764737120484600E-002	8.457699786340527E+000
-5.7263929E-001	-1.764089591085419E-002	8.507699785077421E+000
-5.7363003E-001	-1.764560727557785E-002	8.557699783814314E+000
-5.7466638E-001	-1.764737114017062E-002	8.607699782551208E+000
-5.7569319E-001	-1.777209168196549E-002	8.657699781288102E+000
-5.7666475E-001	-1.773363004731779E-002	8.707699780024996E+000
-5.7765871E-001	-1.767180481692774E-002	8.757699778761889E+000
-5.7866317E-001	-1.763965891398200E-002	8.807699777498783E+000
-5.7963800E-001	-1.761664957868758E-002	8.857699776235677E+000
-5.8065420E-001	-1.757941607825661E-002	8.907699774972571E+000
-5.8169162E-001	-1.755469119288372E-002	8.957699773709464E+000
-5.8270884E-001	-1.759517529582669E-002	9.007699772446358E+000
-5.8364755E-001	-1.756903523346403E-002	9.057699771183252E+000
-5.8465850E-001	-1.757087908400647E-002	9.107699769920146E+000
-5.8563751E-001	-1.755269000487808E-002	9.157699768657039E+000
-5.8664304E-001	-1.757843582675342E-002	9.207699767393933E+000
-5.8766770E-001	-1.755943875846076E-002	9.257699766130827E+000
-5.8868498E-001	-1.754978320052572E-002	9.307699764867721E+000
-5.8965975E-001	-1.754175644600761E-002	9.357699763604614E+000
-5.9068871E-001	-1.757535350258913E-002	9.407699762341508E+000
-5.9166563E-001	-1.756277170972215E-002	9.457699761078402E+000
-5.9267759E-001	-1.757838206227731E-002	9.507699759815296E+000
-5.9366089E-001	-1.760962754444872E-002	9.557699758552189E+000
-5.9462714E-001	-1.754720563810597E-002	9.607699757289083E+000
-5.9564334E-001	-1.753085645139907E-002	9.657699756025977E+000
-5.9666163E-001	-1.762135896219483E-002	9.707699754762871E+000
-5.9763223E-001	-1.755859087764594E-002	9.757699753499764E+000
-5.9866214E-001	-1.753095767020976E-002	9.807699752236658E+000
-5.9968787E-001	-1.755447285810352E-002	9.857699750973552E+000
-6.0069454E-001	-1.754189972093129E-002	9.907699749710446E+000
-6.0166407E-001	-1.749585585289251E-002	9.957699748447340E+000
-6.0268974E-001	-1.747168441458297E-002	1.000769974718423E+001
-6.0368788E-001	-1.745904092590705E-002	1.005769974592113E+001
-6.0465956E-001	-1.744944410165766E-002	1.010769974465802E+001
-6.0567570E-001	-1.742686758128315E-002	1.015769974339491E+001
-6.0671628E-001	-1.740561414691095E-002	1.020769974213181E+001
-6.0765076E-001	-1.739246186291524E-002	1.025769974086870E+001
-6.0869139E-001	-1.741455066992248E-002	1.030769973960560E+001
-6.0968846E-001	-1.739938706116465E-002	1.035769973834249E+001
-6.1068761E-001	-1.738892534652861E-002	1.040769973707938E+001
-6.1164445E-001	-1.735995724555790E-002	1.045769973581628E+001
-6.1264473E-001	-1.736751396674664E-002	1.050769973455317E+001
-6.1365664E-001	-1.736255671561660E-002	1.055769973329006E+001
-6.1463141E-001	-1.735461140870702E-002	1.060769973202696E+001
-6.1568046E-001	-1.732634618464440E-002	1.065769973076385E+001
-6.1664891E-001	-1.732745050685472E-002	1.070769972950075E+001
-6.1768955E-001	-1.732391680815021E-002	1.075769972823764E+001
-6.1866432E-001	-1.732551151265699E-002	1.080769972697453E+001
-6.1964864E-001	-1.732748988541538E-002	1.085769972571143E+001
-6.2064475E-001	-1.732578996086009E-002	1.090769972444832E+001
-6.2165236E-001	-1.733860603740650E-002	1.095769972318521E+001
-6.2269402E-001	-1.730283393300383E-002	1.100769972192211E+001
-6.2363380E-001	-1.736875993837782E-002	1.105769972065900E+001
-6.2464899E-001	-1.730298577092093E-002	1.110769971939590E+001
-6.2564605E-001	-1.727620100697366E-002	1.115769971813279E+001
-6.2664109E-001	-1.727115578897712E-002	1.120769971686968E+001
-6.2761575E-001	-1.729389328802766E-002	1.125769971560658E+001
-6.2864786E-001	-1.728207944607774E-002	1.130769971434347E+001
-6.2963653E-001	-1.726852678823176E-002	1.135769971308036E+001
-6.3066226E-001	-1.729323147554637E-002	1.140769971181726E+001
-6.3171554E-001	-1.724475559442190E-002	1.145769971055415E+001
-6.3262349E-001	-1.722820789587715E-002	1.150769970929105E+001
-6.3365668E-001	-1.724410778842869E-002	1.155769970802794E+001
-6.3466865E-001	-1.724071080227285E-002	1.160769970676483E+001
-6.3562644E-001	-1.728864023634404E-002	1.165769970550173E+001
-6.3666701E-001	-1.725331347444342E-002	1.170769970423862E+001
-6.3765770E-001	-1.722959090990051E-002	1.175769970297551E+001
-6.3865793E-001	-1.723573121449179E-002	1.180769970171241E+001
-6.3963282E-001	-1.724418436815205E-002	1.185769970044930E+001
-6.4066696E-001	-1.724485159825731E-002	1.190769969918620E+001
-6.4165246E-001	-1.725327346637778E-002	1.195769969792309E+001
-6.4264631E-001	-1.724413415865492E-002	1.200769969665998E+001
-6.4365929E-001	-1.725677462053243E-002	1.205769969539688E+001
-6.4467019E-001	-1.727481975858272E-002	1.210769969413377E+001
-6.4566946E-001	-1.727576131923814E-002	1.215769969287066E+001
-6.4663571E-001	-1.726139900791974E-002	1.220769969160756E+001
-6.4765930E-001	-1.726080685922939E-002	1.225769969034445E+001
-6.4869034E-001	-1.728650130745435E-002	1.230769968908135E+001
-6.4968532E-001	-1.730850934594239E-002	1.235769968781824E+001
-6.5064424E-001	-1.732553586932925E-002	1.240769968655513E+001
-6.5164769E-001	-1.730624594751539E-002	1.245769968529203E+001
-6.5263730E-001	-1.730449921106575E-002	1.250769968402892E+001
-6.5364712E-001	-1.732130866946160E-002	1.255769968276581E+001
-6.5465057E-001	-1.733940967393138E-002	1.260769968150271E+001
-6.5565610E-001	-1.732724385672349E-002	1.265769968023960E+001
-6.5662885E-001	-1.733338694234760E-002	1.270769967897650E+001
-6.5765566E-001	-1.734160963463141E-002	1.275769967771339E+001
-6.5868032E-001	-1.736504744514131E-002	1.280769967645028E+001
-6.5963387E-001	-1.737926334694578E-002	1.285769967518718E+001
-6.6064584E-001	-1.736324081085269E-002	1.290769967392407E+001
-6.6165453E-001	-1.741173155002168E-002	1.295769967266097E+001
-6.6263044E-001	-1.739532721910142E-002	1.300769967139786E+001
-6.6367209E-001	-1.739816585581538E-002	1.305769967013475E+001
-6.6466177E-001	-1.737732651074311E-002	1.310769966887165E+001
-6.6562808E-001	-1.740522861385848E-002	1.315769966760854E+001
-6.6667813E-001	-1.740081741741889E-002	1.320769966634543E+001
-6.6766995E-001	-1.741007547954929E-002	1.325769966508233E+001
-6.6865855E-001	-1.740587657291651E-002	1.330769966381922E+001
-6.6963339E-001	-1.740980021552080E-002	1.335769966255612E+001
-6.7067605E-001	-1.742445656391618E-002	1.340769966129301E+001
-6.7159683E-001	-1.743047458283525E-002	1.345769966002990E+001
-6.7260766E-001	-1.743570474597311E-002	1.350769965876680E+001
-6.7364395E-001	-1.744597905565531E-002	1.355769965750369E+001
-6.7464215E-001	-1.744131912278975E-002	1.360769965624058E+001
-6.7562121E-001	-1.743130438693768E-002	1.365769965497748E+001
-6.7664480E-001	-1.747212594771688E-002	1.370769965371437E+001
-6.7763978E-001	-1.745334838482514E-002	1.375769965245127E+001
-6.7865276E-001	-1.745525046889843E-002	1.380769965118816E+001
-6.7963290E-001	-1.746230230977136E-002	1.385769964992505E+001
-6.8062150E-001	-1.745731944942638E-002	1.390769964866195E+001
-6.8164825E-001	-1.746885240491891E-002	1.395769964739884E+001
-6.8262303E-001	-1.752546754734657E-002	1.400769964613573E+001
-6.8364137E-001	-1.748788973566628E-002	1.405769964487263E+001
-6.8461722E-001	-1.749358348617402E-002	1.410769964360952E+001
-6.8558985E-001	-1.748216756257331E-002	1.415769964234642E+001
-6.8662512E-001	-1.749141459974146E-002	1.420769964108331E+001
-6.8764770E-001	-1.751742744387161E-002	1.425769963982020E+001
-6.8862569E-001	-1.750893156578835E-002	1.430769963855710E+001
-6.8962276E-001	-1.750431961759365E-002	1.435769963729399E+001
-6.9063795E-001	-1.750623640017927E-002	1.440769963603088E+001
-6.9160640E-001	-1.752864709555133E-002	1.445769963476778E+001
-6.9263417E-001	-1.754146115423216E-002	1.450769963350467E+001
-6.9363445E-001	-1.755449022770064E-002	1.455769963224157E+001
-6.9467086E-001	-1.753806940245412E-002	1.460769963097846E+001
-6.9568282E-001	-1.753348460058776E-002	1.465769962971535E+001
-6.9665748E-001	-1.753350111647267E-002	1.470769962845225E+001
-6.9763237E-001	-1.753686938684910E-002	1.475769962718914E+001
-6.9863266E-001	-1.755988384226195E-002	1.480769962592603E+001
-6.9964242E-001	-1.757266791752993E-002	1.485769962466293E+001
-7.0064491E-001	-1.757186501830194E-002	1.490769962339982E+001
-7.0161009E-001	-1.757128301283550E-002	1.495769962213672E+001
-7.0269734E-001	-1.758265084397317E-002	1.500769962087361E+001
-7.0366585E-001	-1.758778790503523E-002	1.505769961961050E+001
-7.0463526E-001	-1.759620748796603E-002	1.510769961834740E+001
-7.0561647E-001	-1.762648819971621E-002	1.515769961708429E+001
-7.0660293E-001	-1.764016835389792E-002	1.520769961582118E+001
-7.0770395E-001	-1.763892333945943E-002	1.525769961455808E+001
-7.0865333E-001	-1.768147805921250E-002	1.530769961329497E+001
-7.0963019E-001	-1.765278747512232E-002	1.535769961203187E+001
-7.1064854E-001	-1.764038014786179E-002	1.540769961076876E+001
-7.1163499E-001	-1.763595804934284E-002	1.545769960950565E+001
-7.1265548E-001	-1.763845406498546E-002	1.550769960824255E+001
-7.1362811E-001	-1.764359153350124E-002	1.555769960697944E+001
-7.1462524E-001	-1.767463442498671E-002	1.560769960571633E+001
-7.1563721E-001	-1.767201491209019E-002	1.565769960445323E+001
-7.1665013E-001	-1.768862892425171E-002	1.570769960319012E+001
-7.1766531E-001	-1.769308349617776E-002	1.575769960192702E+001
-7.1868455E-001	-1.770342189896235E-002	1.580769960066391E+001
-7.1968275E-001	-1.771387445559308E-002	1.585769959940080E+001
-7.2067875E-001	-1.781234509285747E-002	1.590769959813770E+001
-7.2165471E-001	-1.795486902550761E-002	1.595769959687459E+001
-7.2266662E-001	-1.783969980035040E-002	1.600769959561148E+001
-7.2368813E-001	-1.800061922511778E-002	1.605769959434838E+001
-7.2470742E-001	-1.786046464608421E-002	1.610769959308527E+001
-7.2566110E-001	-1.786034953935695E-002	1.615769959182217E+001
-7.2667831E-001	-1.787108325408079E-002	1.620769959055906E+001
-7.2766268E-001	-1.783316774742193E-002	1.625769958929595E+001
-7.2867882E-001	-1.790356241313186E-002	1.630769958803285E+001
-7.2967058E-001	-1.785575253112859E-002	1.635769958676974E+001
-7.3067933E-001	-1.786896940191382E-002	1.640769958550663E+001
-7.3167747E-001	-1.786830337692258E-002	1.645769958424353E+001
-7.3267037E-001	-1.787076686741786E-002	1.650769958298042E+001
-7.3369080E-001	-1.786983150048871E-002	1.655769958171732E+001
-7.3465073E-001	-1.788841366888603E-002	1.660769958045421E+001
-7.3565948E-001	-1.788624402359817E-002	1.665769957919110E+001
-7.3663110E-001	-1.789823955968370E-002	1.670769957792800E+001
-7.3765993E-001	-1.792065187840269E-002	1.675769957666489E+001
-7.3864019E-001	-1.791520847257716E-002	1.680769957540178E+001
-7.3969555E-001	-1.793710708281847E-002	1.685769957413868E+001
-7.4063218E-001	-1.793492585205025E-002	1.690769957287557E+001
-7.4168324E-001	-1.794437446881564E-002	1.695769957161247E+001
-7.4268144E-001	-1.795051825293166E-002	1.700769957034936E+001
-7.4368280E-001	-1.796006753014540E-002	1.705769956908625E+001
-7.4470747E-001	-1.795511689744187E-002	1.710769956782315E+001
-7.4569076E-001	-1.796952449647636E-002	1.715769956656004E+001
-7.4671751E-001	-1.797099392731775E-002	1.720769956529693E+001
-7.4769878E-001	-1.797537920194570E-002	1.725769956403383E+001
-7.4867141E-001	-1.798457254578045E-002	1.730769956277072E+001
-7.4967593E-001	-1.798326386294014E-002	1.735769956150762E+001
-7.5069207E-001	-1.800127112289407E-002	1.740769956024451E+001
-7.5165951E-001	-1.800549796489248E-002	1.745769955898140E+001
-7.5265658E-001	-1.801328135102431E-002	1.750769955771830E+001
-7.5367594E-001	-1.804015542061449E-002	1.755769955645519E+001
-7.5468999E-001	-1.804670331465016E-002	1.760769955519208E+001
-7.5564468E-001	-1.808930528393290E-002	1.765769955392898E+001
-7.5669265E-001	-1.809519888505474E-002	1.770769955266587E+001
-7.5768024E-001	-1.807093268251736E-002	1.775769955140277E+001
-7.5864434E-001	-1.807898626214374E-002	1.780769955013966E+001
-7.5967121E-001	-1.808352829000259E-002	1.785769954887655E+001
-7.6067775E-001	-1.808051443745001E-002	1.790769954761345E+001
-7.6162606E-001	-1.809282083909408E-002	1.795769954635034E+001
-7.6268363E-001	-1.810286387033692E-002	1.800769954508723E+001
-7.6369876E-001	-1.809502155649367E-002	1.805769954382413E+001
-7.6464808E-001	-1.811929625519375E-002	1.810769954256102E+001
-7.6562291E-001	-1.811639429716802E-002	1.815769954129792E+001
-7.6664329E-001	-1.812695281545601E-002	1.820769954003481E+001
-7.6766163E-001	-1.815134052325168E-002	1.825769953877170E+001
-7.6864815E-001	-1.815249624498261E-002	1.830769953750860E+001
-7.6969504E-001	-1.815000017544394E-002	1.835769953624549E+001
-7.7067727E-001	-1.818795553925973E-002	1.840769953498238E+001
-7.7169776E-001	-1.817985292291274E-002	1.845769953371928E+001
-7.7268738E-001	-1.817238186615416E-002	1.850769953245617E+001
-7.7364832E-001	-1.819166158653655E-002	1.855769953119307E+001
-7.7465820E-001	-1.819112489250038E-002	1.860769952992996E+001
-7.7566272E-001	-1.818126095113931E-002	1.865769952866685E+001
-7.7670962E-001	-1.818308927748280E-002	1.870769952740375E+001
-7.7766424E-001	-1.818485874079029E-002	1.875769952614064E+001
-7.7864975E-001	-1.818440459815239E-002	1.880769952487753E+001
-7.7964896E-001	-1.819256151146775E-002	1.885769952361443E+001
-7.8064072E-001	-1.819940718727331E-002	1.890769952235132E+001
-7.8166115E-001	-1.820843420163898E-002	1.895769952108822E+001
-7.8262007E-001	-1.822324261647058E-002	1.900769951982511E+001
-7.8366274E-001	-1.827438861881897E-002	1.905769951856200E+001
-7.8465027E-001	-1.822641851483946E-002	1.910769951729890E+001
-7.8569627E-001	-1.823840893511833E-002	1.915769951603579E+001
-7.8667301E-001	-1.823902509770256E-002	1.920769951477268E+001
-7.8765857E-001	-1.824265768475558E-002	1.925769951350958E+001
-7.8866935E-001	-1.824895081463848E-002	1.930769951224647E+001
-7.8966856E-001	-1.824916767698059E-002	1.935769951098337E+001
-7.9064763E-001	-1.825371737747133E-002	1.940769950972026E+001
-7.9163510E-001	-1.826147001702344E-002	1.945769950845715E+001
-7.9266411E-001	-1.827755204781336E-002	1.950769950719405E+001
-7.9368341E-001	-1.829578900166474E-002	1.955769950593094E+001
-7.9465824E-001	-1.830276092557514E-002	1.960769950466783E+001
-7.9568082E-001	-1.832789398893642E-002	1.965769950340473E+001
-7.9665351E-001	-1.832525617512017E-002	1.970769950214162E+001
-7.9764211E-001	-1.831800668474486E-002	1.975769950087852E+001
-7.9865396E-001	-1.831496888297370E-002	1.980769949961541E+001
-7.9965216E-001	-1.832388466896701E-002	1.985769949835230E+001
-8.0066091E-001	-1.833840987119062E-002	1.990769949708920E+001
-8.0165267E-001	-1.834307995590344E-002	1.995769949582609E+001
-8.0266243E-001	-1.834669012653956E-002	2.000769949456298E+001
-8.0364794E-001	-1.835301540645387E-002	2.005769949329988E+001
-8.0466622E-001	-1.836678914346340E-002	2.010769949203677E+001
-8.0563790E-001	-1.836708002008011E-002	2.015769949077367E+001
-8.0664653E-001	-1.838923020598779E-002	2.020769948951056E+001
-8.0765533E-001	-1.839302097990492E-002	2.025769948824745E+001
-8.0869067E-001	-1.839598822967943E-002	2.030769948698435E+001
-8.0963147E-001	-1.840469831626651E-002	2.035769948572124E+001
-8.1064445E-001	-1.841146693375229E-002	2.040769948445814E+001
-8.1162781E-001	-1.841784826980003E-002	2.045769948319503E+001
-8.1264609E-001	-1.843171755360720E-002	2.050769948193192E+001
-8.1362623E-001	-1.843572461856874E-002	2.055769948066882E+001
-8.1462008E-001	-1.844775726958364E-002	2.060769947940571E+001
-8.1565529E-001	-1.847864498806843E-002	2.065769947814260E+001
-8.1664824E-001	-1.847795930829038E-002	2.070769947687950E+001
-8.1773752E-001	-1.848345123990275E-002	2.075769947561639E+001
-8.1864125E-001	-1.849542173807053E-002	2.080769947435329E+001
-8.1967121E-001	-1.849851522085916E-002	2.085769947309018E+001
-8.2068956E-001	-1.851149703833038E-002	2.090769947182707E+001
-8.2168561E-001	-1.852071673083296E-002	2.095769947056397E+001
-8.2265079E-001	-1.853392408358762E-002	2.100769946930086E+001
-8.2372540E-001	-1.854955536071901E-002	2.105769946803775E+001
-8.2469589E-001	-1.855910402351857E-002	2.110769946677465E+001
-8.2564104E-001	-1.856694365549763E-002	2.115769946551154E+001
-8.2663178E-001	-1.857336961957451E-002	2.120769946424844E+001
-8.2765740E-001	-1.857857585289620E-002	2.125769946298533E+001
-8.2868421E-001	-1.859760158738405E-002	2.130769946172222E+001
-8.2968992E-001	-1.860236947174634E-002	2.135769946045912E+001
-8.3066571E-001	-1.862505042528806E-002	2.140769945919601E+001
-8.3166915E-001	-1.863609964493657E-002	2.145769945793290E+001
-8.3265668E-001	-1.863349599470547E-002	2.150769945666980E+001
-8.3367294E-001	-1.865211161957300E-002	2.155769945540669E+001
-8.3465934E-001	-1.866157328994530E-002	2.160769945414359E+001
-8.3567870E-001	-1.867190311895683E-002	2.165769945288048E+001
-8.3666420E-001	-1.867895894597665E-002	2.170769945161737E+001
-8.3764958E-001	-1.869176708903448E-002	2.175769945035427E+001
-8.3866572E-001	-1.871367028259022E-002	2.180769944909116E+001
-8.3965003E-001	-1.876420019349700E-002	2.185769944782805E+001
-8.4067905E-001	-1.874746172257732E-002	2.190769944656495E+001
-8.4163463E-001	-1.876518826854101E-002	2.195769944530184E+001
-8.4263599E-001	-1.876655165795926E-002	2.200769944403874E+001
-8.4361398E-001	-1.876509584124306E-002	2.205769944277563E+001
-8.4467155E-001	-1.878468898832107E-002	2.210769944151252E+001
-8.4564644E-001	-1.879756196177804E-002	2.215769944024942E+001
-8.4670174E-001	-1.880694220825616E-002	2.220769943898631E+001
-8.4770840E-001	-1.882570465009109E-002	2.225769943772320E+001
-8.4870976E-001	-1.882767551837289E-002	2.230769943646010E+001
-8.4971744E-001	-1.884432747761761E-002	2.235769943519699E+001
-8.5072196E-001	-1.885031574811027E-002	2.240769943393389E+001
-8.5167444E-001	-1.886677055369590E-002	2.245769943267078E+001
-8.5267049E-001	-1.887317926459082E-002	2.250769943140767E+001
-8.5364747E-001	-1.889007110838525E-002	2.255769943014457E+001
-8.5471982E-001	-1.889809054167323E-002	2.260769942888146E+001
-8.5566390E-001	-1.890729021289633E-002	2.265769942761835E+001
-8.5665882E-001	-1.892149654708601E-002	2.270769942635525E+001
-8.5767186E-001	-1.893188188033579E-002	2.275769942509214E+001
-8.5865092E-001	-1.894092521440510E-002	2.280769942382904E+001
-8.5964054E-001	-1.895732821948413E-002	2.285769942256593E+001
-8.6067063E-001	-1.896034899012491E-002	2.290769942130282E+001
-8.6167288E-001	-1.897641679884313E-002	2.295769942003972E+001
-8.6266160E-001	-1.899622239310439E-002	2.300769941877661E+001
-8.6367774E-001	-1.900560955551492E-002	2.305769941751350E+001
-8.6468226E-001	-1.901074715984852E-002	2.310769941625040E+001
-8.6566550E-001	-1.902728315649768E-002	2.315769941498729E+001
-8.6666685E-001	-1.904779433755682E-002	2.320769941372419E+001
-8.6763632E-001	-1.905804623297791E-002	2.325769941246108E+001
-8.6862385E-001	-1.906996424292669E-002	2.330769941119797E+001
-8.6963475E-001	-1.907659102990120E-002	2.335769940993487E+001
-8.7067002E-001	-1.909601483149108E-002	2.340769940867176E+001
-8.7165445E-001	-1.910853167107610E-002	2.345769940740865E+001
-8.7263763E-001	-1.912321480361881E-002	2.350769940614555E+001
-8.7364745E-001	-1.913160473513582E-002	2.355769940488244E+001
-8.7462449E-001	-1.914331855261009E-002	2.360769940361934E+001
-8.7564480E-001	-1.915128543084758E-002	2.365769940235623E+001
-8.7661642E-001	-1.916494613935885E-002	2.370769940109312E+001
-8.7762737E-001	-1.918106208365689E-002	2.375769939983002E+001
-8.7863398E-001	-1.919782556446820E-002	2.380769939856691E+001
-8.7963212E-001	-1.919754357853276E-002	2.385769939730380E+001
-8.8063455E-001	-1.933343527640257E-002	2.390769939604070E+001
-8.8165176E-001	-1.953022010598537E-002	2.395769939477759E+001
-8.8265729E-001	-1.965918552768584E-002	2.400769939351449E+001
-8.8363224E-001	-1.956268446735560E-002	2.405769939225138E+001
-8.8466519E-001	-1.952184603282220E-002	2.410769939098827E+001
-8.8564962E-001	-1.948956986975481E-002	2.415769938972517E+001
-8.8666898E-001	-1.948013149753768E-002	2.420769938846206E+001
-8.8761944E-001	-1.949023817562397E-002	2.425769938719895E+001
-8.8865036E-001	-1.949902251578384E-002	2.430769938593585E+001
-8.8959336E-001	-1.948805463595177E-002	2.435769938467274E+001
-8.9060217E-001	-1.949651040895672E-002	2.440769938340964E+001
-8.9162356E-001	-1.950568186455509E-002	2.445769938214653E+001
-8.9259517E-001	-1.945661705987595E-002	2.450769938088342E+001
-8.9365923E-001	-1.941084616636440E-002	2.455769937962032E+001
-8.9468700E-001	-1.941240730660931E-002	2.460769937835721E+001
-8.9564270E-001	-1.948450271824920E-002	2.465769937709410E+001
-8.9669508E-001	-1.946399766192947E-002	2.470769937583100E+001
-8.9765602E-001	-1.944204839808794E-002	2.475769937456789E+001
-8.9864570E-001	-1.944728563237860E-002	2.480769937330479E+001
-8.9960670E-001	-1.944191347057403E-002	2.485769937204168E+001
-9.0062499E-001	-1.944501170914409E-002	2.490769937077857E+001
-9.0165287E-001	-1.945265189580679E-002	2.495769936951547E+001
-9.0261912E-001	-1.946267801449048E-002	2.500769936825236E+001
-9.0362155E-001	-1.947117770194179E-002	2.505769936698925E+001
-9.0464509E-001	-1.948623481655010E-002	2.510769936572615E+001
-9.0564018E-001	-1.949734994020592E-002	2.515769936446304E+001
-9.0663397E-001	-1.949273382908559E-002	2.520769936319994E+001
-9.0765232E-001	-1.950609060737341E-002	2.525769936193683E+001
-9.0861976E-001	-1.950778854855639E-002	2.530769936067372E+001
-9.0959883E-001	-1.951109221058511E-002	2.535769935941062E+001
-9.1062140E-001	-1.952100959735820E-002	2.540769935814751E+001
-9.1163754E-001	-1.952925007100464E-002	2.545769935688440E+001
-9.1263562E-001	-1.952836623725787E-002	2.550769935562130E+001
-9.1364020E-001	-1.953193747128044E-002	2.555769935435819E+001
-9.1463292E-001	-1.954215337065290E-002	2.560769935309509E+001
-9.1561103E-001	-1.954624181208026E-002	2.565769935183198E+001
-9.1665787E-001	-1.955813976841192E-002	2.570769935056887E+001
-9.1762847E-001	-1.955751504067811E-002	2.575769934930577E+001
-9.1861922E-001	-1.956257619679458E-002	2.580769934804266E+001
-9.1960347E-001	-1.957950880751014E-002	2.585769934677955E+001
-9.2058587E-001	-1.958527410170061E-002	2.590769934551645E+001
-9.2165720E-001	-1.960075814147581E-002	2.595769934425334E+001
-9.2267013E-001	-1.959400457605996E-002	2.600769934299024E+001
-9.2372435E-001	-1.960459601616976E-002	2.605769934172713E+001
-9.2468131E-001	-1.961796402638022E-002	2.610769934046402E+001
-9.2567086E-001	-1.962225948227575E-002	2.615769933920092E+001
-9.2671263E-001	-1.962329836614023E-002	2.620769933793781E+001
-9.2767775E-001	-1.963615775349790E-002	2.625769933667470E+001
-9.2867059E-001	-1.964548839195807E-002	2.630769933541160E+001
-9.2968047E-001	-1.965902511168410E-002	2.635769933414849E+001
-9.3064034E-001	-1.967041789881746E-002	2.640769933288539E+001
-9.3170851E-001	-1.967674067149072E-002	2.645769933162228E+001
-9.3266112E-001	-1.968085887859128E-002	2.650769933035917E+001
-9.3367398E-001	-1.967984093223801E-002	2.655769932909607E+001
-9.3464571E-001	-1.968735782429576E-002	2.660769932783296E+001
-9.3567890E-001	-1.970258404724989E-002	2.665769932656985E+001
-9.3665683E-001	-1.970939375934430E-002	2.670769932530675E+001
-9.3763489E-001	-1.970113062567113E-002	2.675769932404364E+001
-9.3870413E-001	-1.971554333188874E-002	2.680769932278054E+001
-9.3964916E-001	-1.974067136352131E-002	2.685769932151743E+001
-9.4068027E-001	-1.972538058395948E-002	2.690769932025432E+001
-9.4162107E-001	-1.972704187371871E-002	2.695769931899122E+001
-9.4267327E-001	-1.972826921674253E-002	2.700769931772811E+001
-9.4366610E-001	-1.973309220004557E-002	2.705769931646500E+001
-9.4469613E-001	-1.973829040070994E-002	2.710769931520190E+001
-9.4566244E-001	-1.975465938017735E-002	2.715769931393879E+001
-9.4665116E-001	-1.975194924657604E-002	2.720769931267569E+001
-9.4770432E-001	-1.975909579131327E-002	2.725769931141258E+001
-9.4869399E-001	-1.977035370051708E-002	2.730769931014947E+001
-9.4968891E-001	-1.977906022350195E-002	2.735769930888637E+001
-9.5066071E-001	-1.978103694057576E-002	2.740769930762326E+001
-9.5165551E-001	-1.977389803397706E-002	2.745769930636015E+001
-9.5270348E-001	-1.980257606892676E-002	2.750769930509705E+001
-9.5364451E-001	-1.979184123101058E-002	2.755769930383394E+001
-9.5466805E-001	-1.979639765125257E-002	2.760769930257084E+001
-9.5569366E-001	-1.979368899655695E-002	2.765769930130773E+001
-9.5669198E-001	-1.981046629198653E-002	2.770769930004462E+001
-9.5768589E-001	-1.979579010986957E-002	2.775769929878152E+001
-9.5866263E-001	-1.979728410003220E-002	2.780769929751841E+001
-9.5968103E-001	-1.980955756691943E-002	2.785769929625530E+001
-9.6069622E-001	-1.980165749382987E-002	2.790769929499220E+001
-9.6166563E-001	-1.981725384636471E-002	2.795769929372909E+001
-9.6267867E-001	-1.981835472354396E-002	2.800769929246599E+001
-9.6368957E-001	-1.980975597096535E-002	2.805769929120288E+001
-9.6465051E-001	-1.981867496053584E-002	2.810769928993977E+001
-9.6564656E-001	-1.981564668326263E-002	2.815769928867667E+001
-9.6667439E-001	-1.982335044778194E-002	2.820769928741356E+001
-9.6763432E-001	-1.983116733134478E-002	2.825769928615046E+001
-9.6861553E-001	-1.982980656558309E-002	2.830769928488735E+001
-9.6965820E-001	-1.983633874786195E-002	2.835769928362424E+001
-9.7067338E-001	-1.983955004511195E-002	2.840769928236114E+001
-9.7167999E-001	-1.984406677204081E-002	2.845769928109803E+001
-9.7269821E-001	-1.984753399975248E-002	2.850769927983492E+001
-9.7365719E-001	-1.985239191843124E-002	2.855769927857182E+001
-9.7470623E-001	-1.985863750343447E-002	2.860769927730871E+001
-9.7564185E-001	-1.986804982880126E-002	2.865769927604561E+001
-9.7664624E-001	-1.986840876742019E-002	2.870769927478250E+001
-9.7769433E-001	-1.986816280771525E-002	2.875769927351939E+001
-9.7865009E-001	-1.986977767363118E-002	2.880769927225629E+001
-9.7963536E-001	-1.987179751611413E-002	2.885769927099318E+001
-9.8066014E-001	-1.987947396183803E-002	2.890769926973007E+001
-9.8165083E-001	-1.988474984170377E-002	2.895769926846697E+001
-9.8263520E-001	-1.988128576798509E-002	2.900769926720386E+001
-9.8367041E-001	-1.988928975037269E-002	2.905769926594076E+001
-9.8465592E-001	-1.989281404961793E-002	2.910769926467765E+001
-9.8560411E-001	-1.989613627557882E-002	2.915769926341454E+001
-9.8665011E-001	-1.990237029234837E-002	2.920769926215144E+001
-9.8766297E-001	-1.990311270303752E-002	2.925769926088833E+001
-9.8864734E-001	-1.992396779651584E-002	2.930769925962522E+001
-9.8963076E-001	-1.991634068501832E-002	2.935769925836212E+001
-9.9067450E-001	-1.991721782057226E-002	2.940769925709901E+001
-9.9162370E-001	-1.992343523737936E-002	2.945769925583591E+001
-9.9263364E-001	-1.992781490035775E-002	2.950769925457280E+001
-9.9363804E-001	-1.993666462281174E-002	2.955769925330969E+001
-9.9465215E-001	-1.993766181705592E-002	2.960769925204659E+001
-9.9564177E-001	-1.994271384103703E-002	2.965769925078348E+001
-9.9664843E-001	-1.994936878542855E-002	2.970769924952037E+001
-9.9767321E-001	-1.994548395224333E-002	2.975769924825727E+001
-9.9864793E-001	-1.995960841843586E-002	2.980769924699416E+001
-9.9968207E-001	-1.995920204488495E-002	2.985769924573106E+001
-1.0006601E+000	-1.996907839525697E-002	2.990769924446795E+001
-1.0016743E+000	-1.997370261448887E-002	2.995769924320484E+001
-1.0026511E+000	-1.997894407206872E-002	3.000769924194174E+001
-1.0036758E+000	-1.998473391911293E-002	3.005769924067863E+001
-1.0047090E+000	-1.999065979746062E-002	3.010769923941552E+001
-1.0056615E+000	-1.999497817855117E-002	3.015769923815242E+001
-1.0066670E+000	-2.000414002341808E-002	3.020769923688931E+001
-1.0076737E+000	-2.001384274896091E-002	3.025769923562621E+001
-1.0086517E+000	-2.001234081237474E-002	3.030769923436310E+001
-1.0096869E+000	-2.002772000075015E-002	3.035769923309999E+001
-1.0106479E+000	-2.003680935336481E-002	3.040769923183689E+001
-1.0116991E+000	-2.003369808921379E-002	3.045769923057378E+001
-1.0126761E+000	-2.004072849242083E-002	3.050769922931067E+001
-1.0136403E+000	-2.004965563321967E-002	3.055769922804757E+001
-1.0146490E+000	-2.006309724593952E-002	3.060769922678446E+001
-1.0156176E+000	-2.007006097981634E-002	3.065769922552136E+001
-1.0166252E+000	-2.007647807261459E-002	3.070769922425825E+001
-1.0176382E+000	-2.008460609337176E-002	3.075769922299514E+001
-1.0186533E+000	-2.009805245109386E-002	3.080769922173204E+001
-1.0196842E+000	-2.011120542711412E-002	3.085769922046893E+001
-1.0206591E+000	-2.011746003214891E-002	3.090769921920582E+001
-1.0216274E+000	-2.012276309930416E-002	3.095769921794272E+001
-1.0226786E+000	-2.013109613822223E-002	3.100769921667961E+001
-1.0236588E+000	-2.014366486885882E-002	3.105769921541651E+001
-1.0246857E+000	-2.014579299268210E-002	3.110769921415340E+001
-1.0256839E+000	-2.016183377364307E-002	3.115769921289029E+001
-1.0266756E+000	-2.016893445936688E-002	3.120769921162719E+001
-1.0276504E+000	-2.018070939272920E-002	3.125769921036408E+001
-1.0286368E+000	-2.018490006190005E-002	3.130769920910097E+001
-1.0296371E+000	-2.020389714528353E-002	3.135769920783787E+001
-1.0306257E+000	-2.021025816254596E-002	3.140769920657476E+001
-1.0316163E+000	-2.022361887092872E-002	3.145769920531166E+001
-1.0326060E+000	-2.024142439822075E-002	3.150769920404855E+001
-1.0336117E+000	-2.025729841638901E-002	3.155769920278544E+001
-1.0346289E+000	-2.026918774936343E-002	3.160769920152234E+001
-1.0356250E+000	-2.029370921620821E-002	3.165769920025923E+001
-1.0366696E+000	-2.030140959605986E-002	3.170769919899612E+001
-1.0376414E+000	-2.032706302297468E-002	3.175769919773302E+001
-1.0386269E+000	-2.035076394289106E-002	3.180769919646991E+001
-1.0396302E+000	-2.037567434685861E-002	3.185769919520681E+001
-1.0406326E+000	-2.039536298037063E-002	3.190769919394370E+001
-1.0416372E+000	-2.042235378434676E-002	3.195769919268059E+001
-1.0426342E+000	-2.044582043351872E-002	3.200769919141749E+001
-1.0436196E+000	-2.046574435533122E-002	3.205769919015438E+001
-1.0446072E+000	-2.050722201561764E-002	3.210769918889127E+001
-1.0456405E+000	-2.053580081081711E-002	3.215769918762817E+001
-1.0465760E+000	-2.057797043299717E-002	3.220769918636506E+001
-1.0476346E+000	-2.062184417715152E-002	3.225769918510196E+001
-1.0486189E+000	-2.066317409992705E-002	3.230769918383885E+001
-1.0496627E+000	-2.073684181259189E-002	3.235769918257574E+001
-1.0506513E+000	-2.079262426424836E-002	3.240769918131264E+001
-1.0516515E+000	-2.086070034635701E-002	3.245769918004953E+001
-1.0526538E+000	-2.095617514957360E-002	3.250769917878642E+001
-1.0536487E+000	-2.106562836302649E-002	3.255769917752332E+001
-1.0546618E+000	-2.118783197753754E-002	3.260769917626021E+001
-1.0556123E+000	-2.133907024593404E-002	3.265769917499711E+001
-1.0566497E+000	-2.153208844915579E-002	3.270769917373400E+001
-1.0576617E+000	-2.179519251135555E-002	3.275769917247089E+001
-1.0586534E+000	-2.219561922053470E-002	3.280769917120779E+001
-1.0596313E+000	-2.289899939421081E-002	3.285769916994468E+001
-1.0606304E+000	-2.436777792172504E-002	3.290769916868157E+001
-1.0616022E+000	-2.804133026101779E-002	3.295769916741847E+001
-1.0626301E+000	-3.715213410625300E-002	3.300769916615536E+001
-1.0636069E+000	-5.745160444725883E-002	3.305769916489226E+001
-1.0649072E+000	-1.143516088111532E-001	3.312269916325022E+001
-1.0662365E+000	-2.089508535788838E-001	3.318769916160818E+001
-1.0672060E+000	-3.068850538865826E-001	3.323769916034507E+001
-1.0681542E+000	-4.169838660293141E-001	3.328769915908197E+001
-1.0692128E+000	-5.326318865021085E-001	3.333769915781886E+001
-1.0702301E+000	-6.501039847455623E-001	3.338769915655575E+001
-1.0711975E+000	-7.669844779151482E-001	3.343769915529265E+001
-1.0721786E+000	-8.825854879838424E-001	3.348769915402954E+001
-1.0732149E+000	-9.967465753908513E-001	3.353769915276644E+001
-1.0745142E+000	-1.140965113490818E+000	3.360269915112440E+001
-1.0758307E+000	-1.283653984467190E+000	3.366769914948236E+001
-1.0768033E+000	-1.393208985665326E+000	3.371769914821925E+001
-1.0778080E+000	-1.501249923060335E+000	3.376769914695615E+001
-1.0788274E+000	-1.608262977666328E+000	3.381769914569304E+001
-1.0798508E+000	-1.714584661026805E+000	3.386769914442993E+001
-1.0808406E+000	-1.819814973131368E+000	3.391769914316683E+001
-1.0818143E+000	-1.924384542361452E+000	3.396769914190372E+001
-1.0827786E+000	-2.028343652685477E+000	3.401769914064062E+001
-1.0837820E+000	-2.132105392162451E+000	3.406769913937751E+001
-1.0848522E+000	-2.235466266395868E+000	3.411769913811440E+001
-1.0858282E+000	-2.338838530911335E+000	3.416769913685130E+001
-1.0868254E+000	-2.441963149165659E+000	3.421769913558819E+001
-1.0878191E+000	-2.544968524464849E+000	3.426769913432508E+001
-1.0888500E+000	-2.647706747055054E+000	3.431769913306198E+001
-1.0898058E+000	-2.751527769698042E+000	3.436769913179887E+001
-1.0908167E+000	-2.855118296764505E+000	3.441769913053577E+001
-1.0918012E+000	-2.959437162511872E+000	3.446769912927266E+001
-1.0928299E+000	-3.064789530579686E+000	3.451769912800955E+001
-1.0937550E+000	-3.169764039693052E+000	3.456769912674645E+001
-1.0947638E+000	-3.275319424492324E+000	3.461769912548334E+001
-1.0957735E+000	-3.381919036860822E+000	3.466769912422023E+001
-1.0968597E+000	-3.488928855569284E+000	3.471769912295713E+001
-1.0978525E+000	-3.596528366759983E+000	3.476769912169402E+001
-1.0987986E+000	-3.704985523113507E+000	3.481769912043092E+001
-1.0998235E+000	-3.813637925518872E+000	3.486769911916781E+001
-1.1008279E+000	-3.924819329822498E+000	3.491769911790470E+001
-1.1018302E+000	-4.035231740938301E+000	3.496769911664160E+001
-1.1028590E+000	-4.147550005603705E+000	3.501769911537849E+001
-1.1038594E+000	-4.260282114148126E+000	3.506769911411538E+001
-1.1048045E+000	-4.374091111951408E+000	3.511769911285228E+001
-1.1058143E+000	-4.489410907582005E+000	3.516769911158917E+001
-1.1068029E+000	-4.604666329092446E+000	3.521769911032607E+001
-1.1078011E+000	-4.720513975178775E+000	3.526769910906296E+001
-1.1087832E+000	-4.837681884566962E+000	3.531769910779985E+001
-1.1098239E+000	-4.954491040772837E+000	3.536769910653675E+001
-1.1108179E+000	-5.072378148083304E+000	3.541769910527364E+001
-1.1118138E+000	-5.190426284516285E+000	3.546769910401053E+001
-1.1128035E+000	-5.308099106506063E+000	3.551769910274743E+001
-1.1137964E+000	-5.425326863372774E+000	3.556769910148432E+001
-1.1148326E+000	-5.542578362204424E+000	3.561769910022122E+001
-1.1157883E+000	-5.658708938293991E+000	3.566769909895811E+001
-1.1168205E+000	-5.773992845857606E+000	3.571769909769500E+001
-1.1177815E+000	-5.888433837780241E+000	3.576769909643190E+001
-1.1188221E+000	-6.002505362033858E+000	3.581769909516879E+001
-1.1197990E+000	-6.114607510191433E+000	3.586769909390569E+001
-1.1207621E+000	-6.225929732124006E+000	3.591769909264258E+001
-1.1217816E+000	-6.337265556609196E+000	3.596769909137947E+001
-1.1227690E+000	-6.446761790249099E+000	3.601769909011637E+001
-1.1237450E+000	-6.555538529599161E+000	3.606769908885326E+001
-1.1247675E+000	-6.663953419084883E+000	3.611769908759015E+001
-1.1258038E+000	-6.771923277113160E+000	3.616769908632705E+001
-1.1268339E+000	-6.880450902161741E+000	3.621769908506394E+001
-1.1278583E+000	-6.986360849053767E+000	3.626769908380084E+001
-1.1289022E+000	-7.090618222951882E+000	3.631769908253773E+001
-1.1298567E+000	-7.194329566425751E+000	3.636769908127462E+001
-1.1308475E+000	-7.297404946000526E+000	3.641769908001152E+001
-1.1318818E+000	-7.399493481274021E+000	3.646769907874841E+001
-1.1328630E+000	-7.500812356118814E+000	3.651769907748530E+001
-1.1338695E+000	-7.601157409173453E+000	3.656769907622220E+001
-1.1348571E+000	-7.701798816521951E+000	3.661769907495909E+001
-1.1358372E+000	-7.800967198831081E+000	3.666769907369599E+001
-1.1369001E+000	-7.899750563833436E+000	3.671769907243288E+001
-1.1378759E+000	-7.998582611481368E+000	3.676769907116977E+001
-1.1388232E+000	-8.095979987471225E+000	3.681769906990667E+001
-1.1398107E+000	-8.192423903279838E+000	3.686769906864356E+001
-1.1408662E+000	-8.289377979658241E+000	3.691769906738045E+001
-1.1418834E+000	-8.385060100643727E+000	3.696769906611735E+001
-1.1428529E+000	-8.480192058616211E+000	3.701769906485424E+001
-1.1438724E+000	-8.576080367520966E+000	3.706769906359114E+001
-1.1448842E+000	-8.670088840855492E+000	3.711769906232803E+001
-1.1458462E+000	-8.763715479109010E+000	3.716769906106492E+001
-1.1468508E+000	-8.856877592978663E+000	3.721769905980182E+001
-1.1478447E+000	-8.950389819012749E+000	3.726769905853871E+001
-1.1488227E+000	-9.042728416345724E+000	3.731769905727560E+001
-1.1498069E+000	-9.135058280494476E+000	3.736769905601250E+001
-1.1508508E+000	-9.226614168396694E+000	3.741769905474939E+001
-1.1518278E+000	-9.319292211974087E+000	3.746769905348629E+001
-1.1528757E+000	-9.410123125270530E+000	3.751769905222318E+001
-1.1538558E+000	-9.501697799673792E+000	3.756769905096007E+001
-1.1548315E+000	-9.591347686670442E+000	3.761769904969697E+001
-1.1558510E+000	-9.681191593408570E+000	3.766769904843386E+001
-1.1568279E+000	-9.770933877538724E+000	3.771769904717075E+001
-1.1578728E+000	-9.860141883293792E+000	3.776769904590765E+001
-1.1588254E+000	-9.947982462467934E+000	3.781769904464454E+001
-1.1598437E+000	-1.003752410301452E+001	3.786769904338144E+001
-1.1608406E+000	-1.012531455137108E+001	3.791769904211833E+001
-1.1618611E+000	-1.021380918003892E+001	3.796769904085522E+001
-1.1628667E+000	-1.030147461206821E+001	3.801769903959212E+001
-1.1638458E+000	-1.038914877948931E+001	3.806769903832901E+001
-1.1648396E+000	-1.047625072024488E+001	3.811769903706590E+001
-1.1658145E+000	-1.056290822448553E+001	3.816769903580280E+001
-1.1668720E+000	-1.065047053606416E+001	3.821769903453969E+001
-1.1678531E+000	-1.073661200978140E+001	3.826769903327659E+001
-1.1688470E+000	-1.082294155381342E+001	3.831769903201348E+001
-1.1698103E+000	-1.090929343744557E+001	3.836769903075037E+001
-1.1710973E+000	-1.100330768161353E+001	3.843269902910833E+001
-1.1724280E+000	-1.109389267843275E+001	3.849779902746377E+001
-1.1734431E+000	-1.117912424973983E+001	3.854769902620319E+001
-1.1744633E+000	-1.126453293135395E+001	3.859769902494008E+001
-1.1754274E+000	-1.134930557230433E+001	3.864779902367445E+001
-1.1764450E+000	-1.143536759099478E+001	3.869769902241387E+001
-1.1774700E+000	-1.151897973758975E+001	3.874769902115077E+001
-1.1784488E+000	-1.160340680579146E+001	3.879789901988261E+001
-1.1794169E+000	-1.168915599674949E+001	3.884769901862455E+001
-1.1804882E+000	-1.177174856976030E+001	3.889779901735892E+001
-1.1814406E+000	-1.185581584518002E+001	3.894779901609581E+001
-1.1824670E+000	-1.194127338803116E+001	3.899769901483523E+001
-1.1834215E+000	-1.202496112683281E+001	3.904789901356708E+001
-1.1844290E+000	-1.210650068208854E+001	3.909779901230650E+001
-1.1853974E+000	-1.219167235671760E+001	3.914779901104339E+001
-1.1863809E+000	-1.227380201834190E+001	3.919789900977776E+001
-1.1874228E+000	-1.235637594825340E+001	3.924779900851718E+001
-1.1883541E+000	-1.243977682752274E+001	3.929789900725154E+001
-1.1893879E+000	-1.252423730835397E+001	3.934789900598844E+001
-1.1904359E+000	-1.260621522103557E+001	3.939789900472533E+001
-1.1914034E+000	-1.268960501088040E+001	3.944789900346223E+001
-1.1924239E+000	-1.277101847198279E+001	3.949789900219912E+001
-1.1934561E+000	-1.285400148895053E+001	3.954789900093601E+001
-1.1944307E+000	-1.293552335986385E+001	3.959789899967291E+001
-1.1954139E+000	-1.301877180514512E+001	3.964789899840980E+001
-1.1964207E+000	-1.309852202291842E+001	3.969789899714669E+001
-1.1974571E+000	-1.318098880847293E+001	3.974789899588359E+001
-1.1983809E+000	-1.326370372154094E+001	3.979789899462048E+001
-1.1994300E+000	-1.334490833238317E+001	3.984789899335738E+001
-1.2003974E+000	-1.342709216144351E+001	3.989789899209427E+001
-1.2014115E+000	-1.350887167453772E+001	3.994789899083116E+001
-1.2024275E+000	-1.359033171335849E+001	3.999789898956806E+001
-1.2034299E+000	-1.367261685706953E+001	4.004789898830495E+001
-1.2044313E+000	-1.375513109454397E+001	4.009789898704184E+001
-1.2054199E+000	-1.383570541717390E+001	4.014789898577874E+001
-1.2064934E+000	-1.391869086910172E+001	4.019789898451563E+001
-1.2074598E+000	-1.399889135581481E+001	4.024789898325253E+001
-1.2084684E+000	-1.408093432806152E+001	4.029789898198942E+001
-1.2094241E+000	-1.415953018267953E+001	4.034789898072631E+001
-1.2104254E+000	-1.424025146828756E+001	4.039789897946321E+001
-1.2114247E+000	-1.432034611481211E+001	4.044789897820010E+001
-1.2124251E+000	-1.440228972170087E+001	4.049789897693699E+001
-1.2134465E+000	-1.448135045501925E+001	4.054789897567389E+001
-1.2144637E+000	-1.456387043661539E+001	4.059789897441078E+001
-1.2154289E+000	-1.464235422125564E+001	4.064789897314768E+001
-1.2163920E+000	-1.472360511400084E+001	4.069789897188457E+001
-1.2173637E+000	-1.480206520027585E+001	4.074789897062146E+001
-1.2184318E+000	-1.488309321580107E+001	4.079789896935836E+001
-1.2194235E+000	-1.496420633130597E+001	4.084789896809525E+001
-1.2203994E+000	-1.504354738968388E+001	4.089789896683214E+001
-1.2213924E+000	-1.512416492568116E+001	4.094789896556904E+001
-1.2224022E+000	-1.520304980101413E+001	4.099789896430593E+001
-1.2234004E+000	-1.528242238362628E+001	4.104789896304283E+001
-1.2244165E+000	-1.536246952524888E+001	4.109789896177972E+001
-1.2254242E+000	-1.544301343405684E+001	4.114789896051661E+001
-1.2263671E+000	-1.552063469975078E+001	4.119789895925351E+001
-1.2274278E+000	-1.560197373010494E+001	4.124789895799040E+001
-1.2282739E+000	-1.566745397117401E+001	4.129039895691676E+001
-1.2286507E+000	-1.570135172208154E+001	4.130779895647720E+001