Ewe/V	<I>/mA	time/s	
-4.0758994E-001	2.398304939270020E+000	0.000000000000000E+000
-4.0816668E-001	2.298819494744141E+000	7.999999797903001E-003
-4.0919012E-001	2.142999681110574E+000	2.219999943918083E-002
-4.1015884E-001	2.020126615436030E+000	3.649999907793244E-002
-4.1116333E-001	1.914843531684408E+000	5.079999871668406E-002
-4.1219369E-001	1.823931669520263E+000	6.509999835543567E-002
-4.1317701E-001	1.724303262599278E+000	7.939999799418729E-002
-4.1415331E-001	1.674013233714508E+000	9.359999763546512E-002
-4.1517252E-001	1.614262035747135E+000	1.079999972716905E-001
-4.1614661E-001	1.560407709757179E+000	1.221999969129683E-001
-4.1717491E-001	1.472943419523730E+000	1.364999965517200E-001
-4.1817805E-001	1.424782718037022E+000	1.507999961904716E-001
-4.1920733E-001	1.404309922800607E+000	1.650999958292232E-001
-4.2015105E-001	1.358166131263715E+000	1.793999954679748E-001
-4.2121309E-001	1.318258448824054E+000	1.935999951092526E-001
-4.2214495E-001	1.275825936769252E+000	2.079999947454780E-001
-4.2317101E-001	1.244083924214163E+000	2.221999943867559E-001
-4.2417949E-001	1.207380051017763E+000	2.364999940255075E-001
-4.2519313E-001	1.195275569441341E+000	2.507999936642591E-001
-4.2615145E-001	1.151827091408463E+000	2.650999933030107E-001
-4.2715627E-001	1.134303946169288E+000	2.793999929417623E-001
-4.2818534E-001	1.132002126587889E+000	2.936999925805139E-001
-4.2912960E-001	1.082232801306720E+000	3.079999922192656E-001
-4.3015069E-001	1.036640158932029E+000	3.221999918605434E-001
-4.3115780E-001	1.010951042267455E+000	3.365999914967688E-001
-4.3218970E-001	9.964024702591523E-001	3.507999911380466E-001
-4.3311843E-001	9.658131409388719E-001	3.650999907767982E-001
-4.3421003E-001	9.338968016187863E-001	3.793999904155498E-001
-4.3517548E-001	9.199503692440150E-001	3.936999900543015E-001
-4.3618986E-001	9.013302815389288E-001	4.079999896930531E-001
-4.3717796E-001	8.887498155478806E-001	4.221999893343309E-001
-4.3823463E-001	8.885952663549723E-001	4.365999889705563E-001
-4.3922088E-001	8.942722160572885E-001	4.507999886118341E-001
-4.4021046E-001	8.701316474530962E-001	4.650999882505857E-001
-4.4113177E-001	8.352438513538765E-001	4.793999878893374E-001
-4.4215021E-001	8.276714960017628E-001	4.936999875280890E-001
-4.4315484E-001	8.257025102211664E-001	5.079999871668406E-001
-4.4414634E-001	8.120913910000436E-001	5.221999868081184E-001
-4.4514588E-001	7.972745580627816E-001	5.365999864443438E-001
-4.4619465E-001	7.983539632065622E-001	5.507999860856216E-001
-4.4714835E-001	7.754282586897432E-001	5.650999857243733E-001
-4.4815066E-001	7.665622367979594E-001	5.793999853631249E-001
-4.4913313E-001	7.697153091430664E-001	5.936999850018765E-001
-4.5012665E-001	7.737837522824211E-001	6.079999846406281E-001
-4.5113441E-001	7.760645723125590E-001	6.221999842819059E-001
-4.5215511E-001	7.667680673815376E-001	6.365999839181313E-001
-4.5318168E-001	7.515767537940228E-001	6.507999835594092E-001
-4.5417991E-001	7.530036273866116E-001	6.650999831981608E-001
-4.5515409E-001	7.465744867658941E-001	6.793999828369124E-001
-4.5618683E-001	7.417497236807034E-001	6.936999824756640E-001
-4.5718995E-001	7.311534482190254E-001	7.079999821144156E-001
-4.5815828E-001	7.243850069062336E-001	7.221999817556934E-001
-4.5913118E-001	7.006876171290095E-001	7.365999813919188E-001
-4.6015650E-001	6.935907295386059E-001	7.507999810331967E-001
-4.6118325E-001	6.781299032008201E-001	7.650999806719483E-001
-4.6219441E-001	6.514096520331769E-001	7.793999803106999E-001
-4.6319288E-001	6.411688108021067E-001	7.936999799494515E-001
-4.6417770E-001	6.198438510061060E-001	8.079999795882031E-001
-4.6515948E-001	6.099847403287058E-001	8.221999792294810E-001
-4.6617845E-001	6.059839187558613E-001	8.365999788657064E-001
-4.6715155E-001	6.077312232761595E-001	8.507999785069842E-001
-4.6815649E-001	6.012301686506412E-001	8.650999781457358E-001
-4.6914518E-001	6.102525553360474E-001	8.793999777844874E-001
-4.7015643E-001	6.030553455249601E-001	8.936999774232390E-001
-4.7114038E-001	5.939983888044171E-001	9.079999770619906E-001
-4.7213352E-001	5.931146158206208E-001	9.221999767032685E-001
-4.7317803E-001	5.870240273725362E-001	9.365999763394939E-001
-4.7414950E-001	5.875378315710500E-001	9.507999759807717E-001
-4.7512355E-001	5.775403431903290E-001	9.650999756195233E-001
-4.7612950E-001	5.759075425788369E-001	9.793999752582749E-001
-4.7719690E-001	5.575350477837797E-001	9.936999748970266E-001
-4.7818294E-001	5.488896249104682E-001	1.007999974535778E+000
-4.7914919E-001	5.550776212839992E-001	1.022199974177056E+000
-4.8014042E-001	5.403246957260608E-001	1.036599973813281E+000
-4.8115355E-001	5.303559768872219E-001	1.050799973454559E+000
-4.8213542E-001	5.290312805308570E-001	1.065099973093311E+000
-4.8313090E-001	5.128561225719750E-001	1.079399972732062E+000
-4.8415062E-001	5.015966718491054E-001	1.093699972370814E+000
-4.8517120E-001	4.837605077530802E-001	1.107999972009566E+000
-4.8614460E-001	4.872661216068099E-001	1.122199971650844E+000
-4.8714101E-001	4.955797542230962E-001	1.136599971287069E+000
-4.8817566E-001	5.093045179431419E-001	1.150799970928347E+000
-4.8918429E-001	5.115914320716497E-001	1.165099970567098E+000
-4.9015430E-001	4.857421342918915E-001	1.179399970205850E+000
-4.9117172E-001	4.776494624929022E-001	1.193699969844602E+000
-4.9216536E-001	4.880246086322595E-001	1.207999969483353E+000
-4.9315983E-001	4.950093613200216E-001	1.222199969124631E+000
-4.9415758E-001	4.907831414893753E-001	1.236599968760856E+000
-4.9515536E-001	4.565294144825511E-001	1.250799968402134E+000
-4.9612674E-001	4.445414627735040E-001	1.265099968040886E+000
-4.9711955E-001	4.418261419001892E-001	1.279399967679637E+000
-4.9816853E-001	4.307768008265747E-001	1.293699967318389E+000
-5.0024515E-001	4.134615676744461E-001	1.322999966578209E+000
-5.0224757E-001	4.038675113891580E-001	1.352199965840555E+000
-5.0320560E-001	4.185894623369686E-001	1.366599965476780E+000
-5.0421536E-001	4.254076139962608E-001	1.380799965118058E+000
-5.0521433E-001	4.132848246763388E-001	1.395099964756810E+000
-5.0621325E-001	4.121375202836752E-001	1.409399964395561E+000
-5.0726324E-001	4.074967665908238E-001	1.423699964034313E+000
-5.0824606E-001	4.036296093011824E-001	1.437999963673064E+000
-5.0923908E-001	3.995257281931135E-001	1.452199963314342E+000
-5.1026243E-001	3.923224048364018E-001	1.466599962950568E+000
-5.1126039E-001	3.839553763706753E-001	1.480799962591846E+000
-5.1236206E-001	3.834477880109954E-001	1.495099962230597E+000
-5.1329911E-001	3.715768755913221E-001	1.509399961869349E+000
-5.1435345E-001	3.544221172276409E-001	1.523699961508100E+000
-5.1533675E-001	3.508370370776310E-001	1.537999961146852E+000
-5.1630872E-001	3.377651957550070E-001	1.552199960788130E+000
-5.1729649E-001	3.392808479523710E-001	1.566599960424355E+000
-5.1831126E-001	3.377197599741830E-001	1.580799960065633E+000
-5.1929903E-001	3.330673433362694E-001	1.595099959704385E+000
-5.2030307E-001	3.229388946929252E-001	1.609399959343136E+000
-5.2127439E-001	3.165844387350941E-001	1.623699958981888E+000
-5.2228546E-001	3.148327516464633E-001	1.637999958620640E+000
-5.2328521E-001	3.096865748363302E-001	1.652199958261917E+000
-5.2426052E-001	3.073787401893541E-001	1.666599957898143E+000
-5.2525288E-001	3.058703668163316E-001	1.680799957539421E+000
-5.2632129E-001	3.011492914663467E-001	1.695099957178172E+000
-5.2732205E-001	2.942826222230610E-001	1.709399956816924E+000
-5.2827495E-001	2.871997393321435E-001	1.723699956455675E+000
-5.2929366E-001	2.773172476142163E-001	1.737999956094427E+000
-5.3027529E-001	2.784159766936988E-001	1.752199955735705E+000
-5.3129297E-001	2.762016977721946E-001	1.766599955371930E+000
-5.3227425E-001	2.887498349652260E-001	1.780799955013208E+000
-5.3325474E-001	2.919558662622688E-001	1.795099954651960E+000
-5.3428352E-001	2.870092749011146E-001	1.809399954290711E+000
-5.3529739E-001	2.916455795797397E-001	1.823699953929463E+000
-5.3630298E-001	2.871169116115202E-001	1.837999953568215E+000
-5.3728634E-001	2.851389432277447E-001	1.852199953209492E+000
-5.3833950E-001	2.789731079161970E-001	1.866599952845718E+000
-5.3934890E-001	2.687755144712956E-001	1.880799952486996E+000
-5.4033124E-001	2.647253319573335E-001	1.895099952125747E+000
-5.4133373E-001	2.633918602126260E-001	1.909399951764499E+000
-5.4235214E-001	2.604992683272421E-001	1.923699951403250E+000
-5.4329789E-001	2.575503051387691E-001	1.937999951042002E+000
-5.4429388E-001	2.520432819607472E-001	1.952199950683280E+000
-5.4528892E-001	2.522722447526273E-001	1.966599950319505E+000
-5.4626447E-001	2.586645801784468E-001	1.980799949960783E+000
-5.4736352E-001	2.564064612480790E-001	1.995099949599535E+000
-5.4827732E-001	2.534290496090152E-001	2.009399949238286E+000
-5.4931599E-001	2.478599273313131E-001	2.023699948877038E+000
-5.5029178E-001	2.458966917790053E-001	2.037999948515790E+000
-5.5126101E-001	2.453456017659250E-001	2.052199948157067E+000
-5.5234069E-001	2.429957678153499E-001	2.066599947793293E+000
-5.5323046E-001	2.336999480612579E-001	2.080799947434571E+000
-5.5425203E-001	2.340222154326065E-001	2.095099947073322E+000
-5.5526924E-001	2.375934198159189E-001	2.109399946712074E+000
-5.5626929E-001	2.329768011119597E-001	2.123699946350825E+000
-5.5724478E-001	2.298725339217840E-001	2.137999945989577E+000
-5.5820918E-001	2.339792476511020E-001	2.152199945630855E+000
-5.5923986E-001	2.316454387012832E-001	2.166599945267080E+000
-5.6027746E-001	2.362190558681805E-001	2.180799944908358E+000
-5.6125212E-001	2.286732130660081E-001	2.195099944547110E+000
-5.6226629E-001	2.267809428206728E-001	2.209399944185861E+000
-5.6325454E-001	2.252522572206382E-001	2.223699943824613E+000
-5.6427044E-001	2.154384918673413E-001	2.237999943463365E+000
-5.6530941E-001	2.138085926962967E-001	2.252199943104642E+000
-5.6626862E-001	2.189749332840928E-001	2.266599942740868E+000
-5.6727582E-001	2.183649110217332E-001	2.280799942382146E+000
-5.6828046E-001	2.180451232963847E-001	2.295099942020897E+000
-5.6927890E-001	2.151107142817636E-001	2.309399941659649E+000
-5.7028836E-001	2.143975111106640E-001	2.323699941298401E+000
-5.7127106E-001	2.197724694330347E-001	2.337999940937152E+000
-5.7227033E-001	2.171896695447994E-001	2.352199940578430E+000
-5.7329869E-001	2.157553313821456E-001	2.366599940214655E+000
-5.7430059E-001	2.143493892253898E-001	2.380799939855933E+000
-5.7528216E-001	2.162646813592756E-001	2.395099939494685E+000
-5.7626516E-001	2.195008838474070E-001	2.409399939133436E+000
-5.7723713E-001	2.107162513614940E-001	2.423699938772188E+000
-5.7829487E-001	2.204786106473572E-001	2.437999938410940E+000
-5.7926691E-001	2.232542145187240E-001	2.452199938052217E+000
-5.8023900E-001	2.119821673829083E-001	2.466599937688443E+000
-5.8128589E-001	2.083552218561338E-001	2.480799937329721E+000
-5.8225822E-001	2.091110774590512E-001	2.495099936968472E+000
-5.8325052E-001	2.125499927157462E-001	2.509399936607224E+000
-5.8426529E-001	2.148657837536367E-001	2.523699936245976E+000
-5.8527559E-001	2.164612645368229E-001	2.537999935884727E+000
-5.8628678E-001	2.157402699279678E-001	2.552199935526005E+000
-5.8727974E-001	2.091886930660012E-001	2.566599935162230E+000
-5.8830303E-001	2.040021152133709E-001	2.580799934803508E+000
-5.8926564E-001	2.066933874972174E-001	2.595099934442260E+000
-5.9026855E-001	2.116235657631476E-001	2.609399934081011E+000
-5.9129953E-001	2.144189831741068E-001	2.623699933719763E+000
-5.9228009E-001	2.132516273753335E-001	2.637999933358515E+000
-5.9327257E-001	2.050442306996660E-001	2.652199932999793E+000
-5.9428751E-001	2.067901112750410E-001	2.666599932636018E+000
-5.9530795E-001	2.169164864559807E-001	2.680799932277296E+000
-5.9629917E-001	2.142920272997948E-001	2.695099931916047E+000
-5.9725827E-001	2.102719237736892E-001	2.709399931554799E+000
-5.9828615E-001	2.104203569905795E-001	2.723699931193551E+000
-5.9926200E-001	2.147479551276779E-001	2.737999930832302E+000
-6.0028231E-001	2.085459471418281E-001	2.752199930473580E+000
-6.0126472E-001	1.957073983151838E-001	2.766599930109805E+000
-6.0226381E-001	1.971643031974963E-001	2.780799929751083E+000
-6.0330015E-001	1.976054646241932E-001	2.795099929389835E+000
-6.0423887E-001	1.921534133543896E-001	2.809399929028586E+000
-6.0522115E-001	1.922287881231073E-001	2.823699928667338E+000
-6.0626996E-001	1.929892225998628E-001	2.837999928306090E+000
-6.0726321E-001	1.896511955977380E-001	2.852199927947368E+000
-6.0824221E-001	1.971452216190903E-001	2.866599927583593E+000
-6.0924578E-001	1.949689183893488E-001	2.880799927224871E+000
-6.1024505E-001	1.921433524730117E-001	2.895099926863622E+000
-6.1124015E-001	1.945833348654564E-001	2.909399926502374E+000
-6.1223316E-001	1.991102238400624E-001	2.923699926141126E+000
-6.1322933E-001	1.980886935853055E-001	2.937999925779877E+000
-6.1423236E-001	1.931825409992602E-001	2.952199925421155E+000
-6.1527628E-001	1.894766142856206E-001	2.966599925057380E+000
-6.1624873E-001	1.812402041723542E-001	2.980799924698658E+000
-6.1725503E-001	1.724060836695860E-001	2.995099924337410E+000
-6.1827034E-001	1.688048797507991E-001	3.009399923976162E+000
-6.1929989E-001	1.644719584510685E-001	3.023699923614913E+000
-6.2025517E-001	1.633219656287106E-001	3.037999923253665E+000
-6.2121445E-001	1.662234300814207E-001	3.052199922894943E+000
-6.2228084E-001	1.618656151313189E-001	3.066599922531168E+000
-6.2323606E-001	1.613744748253034E-001	3.080799922172446E+000
-6.2427688E-001	1.647586573613808E-001	3.095099921811197E+000
-6.2526077E-001	1.616938697813267E-001	3.109399921449949E+000
-6.2629151E-001	1.597225594889511E-001	3.123699921088701E+000
-6.2724549E-001	1.592531917309918E-001	3.137999920727452E+000
-6.2822479E-001	1.574388554478596E-001	3.152199920368730E+000
-6.2929666E-001	1.601470543325076E-001	3.166599920004955E+000
-6.3028502E-001	1.621027358566307E-001	3.180799919646233E+000
-6.3125646E-001	1.597371035798765E-001	3.195099919284985E+000
-6.3225818E-001	1.614060631497214E-001	3.209399918923737E+000
-6.3324624E-001	1.579316023575990E-001	3.223699918562488E+000
-6.3429815E-001	1.560370027940133E-001	3.237999918201240E+000
-6.3526195E-001	1.580168939114326E-001	3.252199917842518E+000
-6.3626397E-001	1.570912340727468E-001	3.266599917478743E+000
-6.3723177E-001	1.581484934164714E-001	3.280799917120021E+000
-6.3823956E-001	1.562161359255407E-001	3.295099916758772E+000
-6.3925344E-001	1.530937932905849E-001	3.309399916397524E+000
-6.4026690E-001	1.505575132830876E-001	3.323699916036276E+000
-6.4126927E-001	1.485100405910390E-001	3.337999915675027E+000
-6.4226419E-001	1.500941368515968E-001	3.352199915316305E+000
-6.4330643E-001	1.514453315618693E-001	3.366599914952531E+000
-6.4425820E-001	1.497654959263555E-001	3.380799914593808E+000
-6.4526325E-001	1.467676906500204E-001	3.395099914232560E+000
-6.4628148E-001	1.512023095559316E-001	3.409399913871312E+000
-6.4724898E-001	1.548702336382122E-001	3.423699913510063E+000
-6.4825249E-001	1.533662971554199E-001	3.437999913148815E+000
-6.4923680E-001	1.545060888377819E-001	3.452199912790093E+000
-6.5025645E-001	1.536718546770617E-001	3.466599912426318E+000
-6.5129721E-001	1.532956216172655E-001	3.480799912067596E+000
-6.5225089E-001	1.536209247570532E-001	3.495099911706347E+000
-6.5329254E-001	1.517391628628197E-001	3.509399911345099E+000
-6.5427744E-001	1.484744883034956E-001	3.523699910983851E+000
-6.5522641E-001	1.497893440888824E-001	3.537999910622602E+000
-6.5625751E-001	1.477613435787740E-001	3.552199910263880E+000
-6.5724289E-001	1.428579208756371E-001	3.566599909900106E+000
-6.5828097E-001	1.428070260632617E-001	3.580799909541383E+000
-6.5923810E-001	1.422665529030691E-001	3.595099909180135E+000
-6.6022778E-001	1.432833399837059E-001	3.609399908818887E+000
-6.6124570E-001	1.479893143629079E-001	3.623699908457638E+000
-6.6228223E-001	1.464516821294332E-001	3.637999908096390E+000
-6.6324639E-001	1.432618908529544E-001	3.652199907737668E+000
-6.6422629E-001	1.394050683617634E-001	3.666599907373893E+000
-6.6525835E-001	1.369158136294573E-001	3.680799907015171E+000
-6.6627008E-001	1.377442668204028E-001	3.695099906653923E+000
-6.6722602E-001	1.395234301277624E-001	3.709399906292674E+000
-6.6822183E-001	1.402739550422827E-001	3.723699905931426E+000
-6.6926157E-001	1.397736966161274E-001	3.737999905570177E+000
-6.7022544E-001	1.412324886593221E-001	3.752199905211455E+000
-6.7128569E-001	1.390632423414595E-001	3.766599904847681E+000
-6.7221326E-001	1.339554923197280E-001	3.780799904488958E+000
-6.7326504E-001	1.339873238078629E-001	3.795099904127710E+000
-6.7423600E-001	1.315578062670588E-001	3.809399903766462E+000
-6.7522281E-001	1.302261390227772E-001	3.823699903405213E+000
-6.7624825E-001	1.284673623667913E-001	3.837999903043965E+000
-6.7727482E-001	1.293473558574384E-001	3.852199902685243E+000
-6.7825925E-001	1.293616914184288E-001	3.866599902321468E+000
-6.7925525E-001	1.273557102498065E-001	3.880799901962746E+000
-6.8023336E-001	1.249680748722779E-001	3.895099901601498E+000
-6.8126112E-001	1.244562979548696E-001	3.909399901240249E+000
-6.8224806E-001	1.225771174473594E-001	3.923699900879001E+000
-6.8329406E-001	1.272101376828991E-001	3.937999900517752E+000
-6.8423647E-001	1.289089759908775E-001	3.952199900159030E+000
-6.8523824E-001	1.278562699347580E-001	3.966599899795256E+000
-6.8626469E-001	1.273793429312112E-001	3.980799899436533E+000
-6.8724740E-001	1.261930951335213E-001	3.995099899075285E+000
-6.8826836E-001	1.268168136296786E-001	4.009399898714037E+000
-6.8926865E-001	1.299020062785787E-001	4.023699898352788E+000
-6.9025028E-001	1.327135861192800E-001	4.037999897991540E+000
-6.9127953E-001	1.328198913737042E-001	4.052199897632818E+000
-6.9226336E-001	1.319210951217731E-001	4.066599897269043E+000
-6.9326442E-001	1.296421743985173E-001	4.080799896910321E+000
-6.9425547E-001	1.246713126657344E-001	4.095099896549073E+000
-6.9525504E-001	1.212130680238865E-001	4.109399896187824E+000
-6.9625187E-001	1.214941366981614E-001	4.123699895826576E+000
-6.9725400E-001	1.215342238144033E-001	4.137999895465327E+000
-6.9824457E-001	1.208817023701463E-001	4.152199895106605E+000
-6.9926280E-001	1.229176421681286E-001	4.166599894742831E+000
-7.0022124E-001	1.202996116214003E-001	4.180799894384108E+000
-7.0122778E-001	1.170617895445620E-001	4.195099894022860E+000
-7.0226282E-001	1.144607059153108E-001	4.209399893661612E+000
-7.0328701E-001	1.138683587223155E-001	4.223699893300363E+000
-7.0423204E-001	1.119815752584450E-001	4.237999892939115E+000
-7.0527577E-001	1.111292962220127E-001	4.252199892580393E+000
-7.0626700E-001	1.112621017133886E-001	4.266599892216618E+000
-7.0724452E-001	1.129935871880057E-001	4.280799891857896E+000
-7.0822924E-001	1.122445498545392E-001	4.295099891496648E+000
-7.0928395E-001	1.098828235699331E-001	4.309399891135399E+000
-7.1022463E-001	1.073549197246439E-001	4.323699890774151E+000
-7.1119040E-001	1.053804317361938E-001	4.337999890412902E+000
-7.1225256E-001	1.053593799163839E-001	4.352199890054180E+000
-7.1326023E-001	1.044019727420764E-001	4.366599889690406E+000
-7.1420527E-001	1.035721789661088E-001	4.380799889331684E+000
-7.1523017E-001	1.029607621403650E-001	4.395099888970435E+000
-7.1622849E-001	1.039346045363345E-001	4.409399888609187E+000
-7.1726215E-001	1.041080088068083E-001	4.423699888247938E+000
-7.1827596E-001	1.046058884658123E-001	4.437999887886690E+000
-7.1929562E-001	1.043128850912280E-001	4.452199887527968E+000
-7.2025090E-001	1.029689041370152E-001	4.466599887164193E+000
-7.2128719E-001	1.019082188007210E-001	4.480799886805471E+000
-7.2229737E-001	1.011839460683031E-001	4.495099886444223E+000
-7.2327048E-001	1.021052567321017E-001	4.509399886082974E+000
-7.2420526E-001	9.901137224231404E-002	4.523699885721726E+000
-7.2528237E-001	9.730417164792027E-002	4.537999885360477E+000
-7.2623211E-001	9.604471816480020E-002	4.552199885001755E+000
-7.2725558E-001	9.591220593392813E-002	4.566599884637981E+000
-7.2827983E-001	9.766826800478159E-002	4.580799884279259E+000
-7.2926050E-001	9.764622786404720E-002	4.595099883918010E+000
-7.3024899E-001	9.748347232804611E-002	4.609399883556762E+000
-7.3123980E-001	9.706464384992922E-002	4.623699883195513E+000
-7.3231983E-001	9.559863378369027E-002	4.637999882834265E+000
-7.3325169E-001	9.370206203614845E-002	4.652199882475543E+000
-7.3429185E-001	9.440354157898900E-002	4.666599882111768E+000
-7.3524451E-001	9.402882720193428E-002	4.680799881753046E+000
-7.3628587E-001	9.359616207746968E-002	4.695099881391798E+000
-7.3730332E-001	9.289424886507415E-002	4.709399881030549E+000
-7.3826450E-001	9.244597560714196E-002	4.723699880669301E+000
-7.3922932E-001	9.157144797912520E-002	4.737999880308053E+000
-7.4026263E-001	9.062713479397644E-002	4.752199879949330E+000
-7.4127758E-001	9.000652582653856E-002	4.766599879585556E+000
-7.4225825E-001	8.796685487383615E-002	4.780799879226834E+000
-7.4329913E-001	8.725343550352449E-002	4.795099878865585E+000
-7.4430490E-001	8.777412676924246E-002	4.809399878504337E+000
-7.4532598E-001	8.518859957350822E-002	4.823699878143088E+000
-7.4629819E-001	8.354101409956149E-002	4.837999877781840E+000
-7.4730700E-001	8.429581237002548E-002	4.852199877423118E+000
-7.4825376E-001	8.297232746917871E-002	4.866599877059343E+000
-7.4924529E-001	8.095648423538160E-002	4.880799876700621E+000
-7.5026852E-001	8.127054997319805E-002	4.895099876339373E+000
-7.5126690E-001	7.988626940004862E-002	4.909399875978124E+000
-7.5226736E-001	8.017513326411030E-002	4.923699875616876E+000
-7.5327933E-001	7.999752983081021E-002	4.937999875255628E+000
-7.5428772E-001	7.957254942933412E-002	4.952199874896905E+000
-7.5525141E-001	8.057351259837242E-002	4.966599874533131E+000
-7.5627208E-001	8.255014099571167E-002	4.980799874174409E+000
-7.5728685E-001	8.286625741509324E-002	4.995099873813160E+000
-7.5827169E-001	8.170902621471532E-002	5.009399873451912E+000
-7.5923151E-001	8.006713218742245E-002	5.023699873090663E+000
-7.6026958E-001	7.724148568437772E-002	5.037999872729415E+000
-7.6125932E-001	7.680449337203754E-002	5.052199872370693E+000
-7.6223439E-001	7.705688135411037E-002	5.066599872006918E+000
-7.6327360E-001	7.345667339419970E-002	5.080799871648196E+000
-7.6426345E-001	7.444209554919218E-002	5.095099871286948E+000
-7.6529610E-001	7.310982241839747E-002	5.109399870925699E+000
-7.6630783E-001	7.183008855596817E-002	5.123699870564451E+000
-7.6728040E-001	7.066323399006547E-002	5.137999870203203E+000
-7.6827139E-001	6.855100355945376E-002	5.152199869844480E+000
-7.6926255E-001	6.819791530415387E-002	5.166599869480706E+000
-7.7026737E-001	6.865602574362140E-002	5.180799869121984E+000
-7.7131277E-001	6.941479373251641E-002	5.195099868760735E+000
-7.7222884E-001	6.902489908861764E-002	5.209399868399487E+000
-7.7325547E-001	6.998894901241726E-002	5.223699868038238E+000
-7.7423507E-001	6.964129263451485E-002	5.237999867676990E+000
-7.7525079E-001	6.892940309868822E-002	5.252199867318268E+000
-7.7628320E-001	6.934894759979238E-002	5.266599866954493E+000
-7.7725589E-001	6.981897138484783E-002	5.280799866595771E+000
-7.7826643E-001	6.826061079702461E-002	5.295099866234523E+000
-7.7929509E-001	6.923868288201129E-002	5.309399865873274E+000
-7.8027135E-001	6.828942191428847E-002	5.323699865512026E+000
-7.8124982E-001	6.815934996787593E-002	5.337999865150778E+000
-7.8226382E-001	6.794921360748662E-002	5.352199864792055E+000
-7.8327477E-001	6.773784661496995E-002	5.366599864428281E+000
-7.8427160E-001	6.638249903213977E-002	5.380799864069559E+000
-7.8527641E-001	6.668174047536435E-002	5.395099863708310E+000
-7.8625214E-001	6.734388375177036E-002	5.409399863347062E+000
-7.8727728E-001	6.722582019208823E-002	5.423699862985814E+000
-7.8821999E-001	6.524073355346141E-002	5.437999862624565E+000
-7.8926361E-001	6.496964491088864E-002	5.452199862265843E+000
-7.9026181E-001	6.570195421409164E-002	5.466599861902068E+000
-7.9126102E-001	6.638501015731890E-002	5.480799861543346E+000
-7.9224014E-001	6.562796857876674E-002	5.495099861182098E+000
-7.9322851E-001	6.542375819481105E-002	5.509399860820849E+000
-7.9427707E-001	6.510292163047093E-002	5.523699860459601E+000
-7.9527551E-001	6.529120956080681E-002	5.537999860098353E+000
-7.9622823E-001	6.359236021429138E-002	5.552199859739630E+000
-7.9727274E-001	6.385223632272130E-002	5.566599859375856E+000
-7.9826123E-001	6.504979791528365E-002	5.580799859017134E+000
-7.9927856E-001	6.609508917511731E-002	5.595099858655885E+000
-8.0023485E-001	6.637728323979286E-002	5.609399858294637E+000
-8.0127054E-001	6.266673475426299E-002	5.623699857933389E+000
-8.0226058E-001	6.168899529651151E-002	5.637999857572140E+000
-8.0328435E-001	6.221789361204588E-002	5.652299857210892E+000
-8.0423599E-001	6.154371978209383E-002	5.666599856849643E+000
-8.0522639E-001	6.113980868606950E-002	5.680799856490921E+000
-8.0626857E-001	6.019246661349031E-002	5.695099856129673E+000
-8.0724061E-001	5.895650003124792E-002	5.709399855768424E+000
-8.0826765E-001	5.814157126363967E-002	5.723699855407176E+000
-8.0922371E-001	5.786761861205980E-002	5.737999855045928E+000
-8.1026870E-001	5.726552177011657E-002	5.752299854684679E+000
-8.1125832E-001	5.668329218830559E-002	5.766599854323431E+000
-8.1222880E-001	5.730497112290341E-002	5.780799853964709E+000
-8.1322640E-001	5.865325440572652E-002	5.795199853600934E+000
-8.1426930E-001	5.937436009814223E-002	5.809399853242212E+000
-8.1524515E-001	5.916622067556898E-002	5.823699852880964E+000
-8.1626129E-001	5.923610503820498E-002	5.837999852519715E+000
-8.1725055E-001	5.950723787417478E-002	5.852299852158467E+000
-8.1826216E-001	5.943299147323472E-002	5.866599851797218E+000
-8.1929624E-001	5.855944537446123E-002	5.880799851438496E+000
-8.2029819E-001	5.799583719484274E-002	5.895199851074722E+000
-8.2127136E-001	5.855462438072867E-002	5.909399850715999E+000
-8.2231200E-001	5.706701718855867E-002	5.923699850354751E+000
-8.2324713E-001	5.669076788459904E-002	5.937999849993503E+000
-8.2428813E-001	5.656496875692568E-002	5.952299849632254E+000
-8.2523054E-001	5.734848074189358E-002	5.966599849271006E+000
-8.2625467E-001	5.555059705996751E-002	5.980799848912284E+000
-8.2725495E-001	5.379639138603448E-002	5.995199848548509E+000
-8.2826233E-001	5.352748638385219E-002	6.009399848189787E+000
-8.2926559E-001	5.287088289534514E-002	6.023699847828539E+000
-8.3028966E-001	5.212572360263346E-002	6.037999847467290E+000
-8.3125681E-001	5.197221949153297E-002	6.052299847106042E+000
-8.3223677E-001	5.184665336461582E-002	6.066599846744793E+000
-8.3324784E-001	5.137019381254515E-002	6.080799846386071E+000
-8.3429128E-001	5.072854751203221E-002	6.095199846022297E+000
-8.3527792E-001	5.038366812217049E-002	6.109399845663575E+000
-8.3625948E-001	4.979534182064704E-002	6.123699845302326E+000
-8.3726943E-001	4.971756788533344E-002	6.137999844941078E+000
-8.3824176E-001	4.981273632460770E-002	6.152299844579829E+000
-8.3924592E-001	4.962806597541225E-002	6.166599844218581E+000
-8.4031874E-001	4.778616389618651E-002	6.180799843859859E+000
-8.4124678E-001	4.704124334360427E-002	6.195199843496084E+000
-8.4228921E-001	4.700152045703987E-002	6.209399843137362E+000
-8.4328938E-001	4.752435587340587E-002	6.223699842776114E+000
-8.4427500E-001	4.769332660028630E-002	6.237999842414865E+000
-8.4531975E-001	4.732140947031815E-002	6.252299842053617E+000
-8.4630287E-001	4.628998260128947E-002	6.266599841692369E+000
-8.4729606E-001	4.586679502729868E-002	6.280799841333646E+000
-8.4830016E-001	4.648864068409830E-002	6.295199840969872E+000
-8.4926450E-001	4.623906761783797E-002	6.309399840611150E+000
-8.5027874E-001	4.510140093610610E-002	6.323699840249901E+000
-8.5128444E-001	4.591842611807817E-002	6.337999839888653E+000
-8.5227394E-001	4.624417192356378E-002	6.352299839527404E+000
-8.5328019E-001	4.622865138996221E-002	6.366599839166156E+000
-8.5421425E-001	4.606608121018030E-002	6.380799838807434E+000
-8.5527664E-001	4.523292645838711E-002	6.395199838443659E+000
-8.5624897E-001	4.572714669272182E-002	6.409399838084937E+000
-8.5723615E-001	4.437816555907317E-002	6.423699837723689E+000
-8.5932755E-001	4.336276633809658E-002	6.452999836983508E+000
-8.6140639E-001	4.237005462055091E-002	6.482299836243328E+000
-8.6242211E-001	4.234164832026488E-002	6.496599835882080E+000
-8.6333710E-001	4.114666180536614E-002	6.510799835523358E+000
-8.6436307E-001	3.977888072555885E-002	6.525199835159583E+000
-8.6539656E-001	3.963544431189792E-002	6.539399834800861E+000
-8.6636597E-001	4.009447175776598E-002	6.553699834439612E+000
-8.6741352E-001	3.961890046063377E-002	6.567999834078364E+000
-8.6835206E-001	4.024071521110795E-002	6.582299833717116E+000
-8.6940247E-001	3.947011949321677E-002	6.596599833355867E+000
-8.7039721E-001	3.916990157176770E-002	6.610799832997145E+000
-8.7134731E-001	3.880714745976854E-002	6.625199832633371E+000
-8.7237674E-001	3.785015719904550E-002	6.639399832274648E+000
-8.7334067E-001	3.771393135837764E-002	6.653699831913400E+000
-8.7435883E-001	3.661215591425099E-002	6.667999831552152E+000
-8.7533939E-001	3.615601379469101E-002	6.682299831190903E+000
-8.7634480E-001	3.531571158525065E-002	6.696599830829655E+000
-8.7728977E-001	3.498742458896220E-002	6.710799830470933E+000
-8.7836671E-001	3.407344218627868E-002	6.725199830107158E+000
-8.7931907E-001	3.448005741711313E-002	6.739399829748436E+000
-8.8034707E-001	3.367676533137759E-002	6.753699829387187E+000
-8.8134563E-001	3.380973733768156E-002	6.767999829025939E+000
-8.8232964E-001	3.448745989933228E-002	6.782299828664691E+000
-8.8333374E-001	3.446363590486118E-002	6.796599828303442E+000
-8.8432086E-001	3.281923438332035E-002	6.810799827944720E+000
-8.8534212E-001	3.211234556404935E-002	6.825199827580946E+000
-8.8631368E-001	3.199705954845433E-002	6.839399827222223E+000
-8.8734436E-001	3.189306382510743E-002	6.853699826860975E+000
-8.8831478E-001	3.145271202902231E-002	6.867999826499727E+000
-8.8929737E-001	3.080837014877508E-002	6.882299826138478E+000
-8.9032012E-001	3.024728021728162E-002	6.896599825777230E+000
-8.9135557E-001	3.059075321440718E-002	6.910799825418508E+000
-8.9233047E-001	3.060639562348422E-002	6.925199825054733E+000
-8.9329976E-001	2.977783000778808E-002	6.939399824696011E+000
-8.9438981E-001	2.914659392837904E-002	6.953699824334763E+000
-8.9535964E-001	2.887520939960569E-002	6.967999823973514E+000
-8.9635891E-001	2.858061794421457E-002	6.982299823612266E+000
-8.9739168E-001	2.813076604600916E-002	6.996599823251017E+000
-8.9839065E-001	2.715374756583819E-002	7.010799822892295E+000
-8.9936596E-001	2.636018078207297E-002	7.025199822528521E+000
-9.0038615E-001	2.592005686316645E-002	7.039399822169798E+000
-9.0134436E-001	2.504022344260309E-002	7.053699821808550E+000
-9.0237278E-001	2.406824493694631E-002	7.067999821447302E+000
-9.0336478E-001	2.383328890248848E-002	7.082299821086053E+000
-9.0435696E-001	2.384643733027297E-002	7.096599820724805E+000
-9.0534097E-001	2.291348690080969E-002	7.110799820366083E+000
-9.0634519E-001	2.235864550251188E-002	7.125199820002308E+000
-9.0736973E-001	2.218304493953838E-002	7.139399819643586E+000
-9.0835953E-001	2.183751103457787E-002	7.153699819282338E+000
-9.0935409E-001	2.170840949967601E-002	7.167999818921089E+000
-9.1034472E-001	2.169764424720485E-002	7.182299818559841E+000
-9.1132462E-001	2.145039017614181E-002	7.196599818198592E+000
-9.1236824E-001	2.109777541143862E-002	7.210799817839870E+000
-9.1335183E-001	2.061073857476002E-002	7.225199817476096E+000
-9.1438556E-001	2.007408505104047E-002	7.239399817117373E+000
-9.1530889E-001	1.936872920681104E-002	7.253699816756125E+000
-9.1631222E-001	1.886335550663412E-002	7.267999816394877E+000
-9.1733778E-001	1.870965434615923E-002	7.282299816033628E+000
-9.1834134E-001	1.828429456486444E-002	7.296599815672380E+000
-9.1933650E-001	1.801466799050405E-002	7.310799815313658E+000
-9.2035151E-001	1.779075573161515E-002	7.325199814949883E+000
-9.2135489E-001	1.704868842208877E-002	7.339399814591161E+000
-9.2238402E-001	1.662895605878495E-002	7.353699814229913E+000
-9.2339635E-001	1.669697059696779E-002	7.367999813868664E+000
-9.2440474E-001	1.644531309765843E-002	7.382299813507416E+000
-9.2536503E-001	1.587104095347058E-002	7.396599813146167E+000
-9.2640001E-001	1.616904308904545E-002	7.410799812787445E+000
-9.2736405E-001	1.569761942331144E-002	7.425199812423671E+000
-9.2839783E-001	1.520794281736926E-002	7.439399812064948E+000
-9.2941457E-001	1.485041576334670E-002	7.453699811703700E+000
-9.3037325E-001	1.428318894924513E-002	7.467999811342452E+000
-9.3139845E-001	1.395939449079703E-002	7.482299810981203E+000
-9.3234438E-001	1.369494606001351E-002	7.496599810619955E+000
-9.3336350E-001	1.342809926184906E-002	7.510799810261233E+000
-9.3434787E-001	1.302184052633493E-002	7.525199809897458E+000
-9.3531835E-001	1.277028863379807E-002	7.539399809538736E+000
-9.3642133E-001	1.237887506349352E-002	7.553699809177488E+000
-9.3736309E-001	1.212538548528153E-002	7.567999808816239E+000
-9.3833357E-001	1.204499782672010E-002	7.582299808454991E+000
-9.3937522E-001	1.161075058325875E-002	7.596599808093742E+000
-9.4038969E-001	1.122678372579840E-002	7.610799807735020E+000
-9.4136155E-001	1.099130305181013E-002	7.625199807371246E+000
-9.4238758E-001	1.076817130270531E-002	7.639399807012524E+000
-9.4336951E-001	1.047328031000246E-002	7.653699806651275E+000
-9.4434875E-001	1.021083158824842E-002	7.667999806290027E+000
-9.4534814E-001	9.927557164598672E-003	7.682299805928778E+000
-9.4641197E-001	9.988305627530308E-003	7.696599805567530E+000
-9.4735020E-001	9.566068633034769E-003	7.710799805208808E+000
-9.4839180E-001	9.342296980207736E-003	7.725199804845033E+000
-9.4939899E-001	8.802435108274637E-003	7.739399804486311E+000
-9.5035797E-001	8.415759364643005E-003	7.753699804125063E+000
-9.5135802E-001	7.959618461275866E-003	7.767999803763814E+000
-9.5243508E-001	7.502049273581446E-003	7.782299803402566E+000
-9.5345861E-001	7.146690739887204E-003	7.796599803041318E+000
-9.5437413E-001	6.841535889937730E-003	7.810799802682595E+000
-9.5541561E-001	6.447967502822415E-003	7.825199802318821E+000
-9.5634913E-001	5.899427678779531E-003	7.839399801960099E+000
-9.5738655E-001	5.693201170129808E-003	7.853699801598850E+000
-9.5844263E-001	5.166307549435117E-003	7.867999801237602E+000
-9.5940936E-001	4.710958690441490E-003	7.882299800876353E+000
-9.6038651E-001	4.358412751078806E-003	7.896599800515105E+000
-9.6140093E-001	3.945918196052403E-003	7.910799800156383E+000
-9.6243215E-001	3.629971150701308E-003	7.925199799792608E+000
-9.6334314E-001	3.217189254314697E-003	7.939399799433886E+000
-9.6440059E-001	2.899844942947271E-003	7.953699799072638E+000
-9.6537423E-001	2.484849766233310E-003	7.967999798711389E+000
-9.6851373E-001	1.004129534778309E-003	8.012299797592277E+000
-9.6950412E-001	7.483271996354332E-004	8.026599797231029E+000
-9.7051191E-001	4.071642632510475E-004	8.040799796872307E+000
-9.7146052E-001	9.863305884350048E-005	8.055199796508532E+000
-9.7253633E-001	-2.966910460611887E-004	8.069399796149810E+000
-9.7347218E-001	-6.657244434254833E-004	8.083699795788561E+000
-9.7451073E-001	-9.509562276003650E-004	8.097999795427313E+000
-9.7551155E-001	-1.178967715098293E-003	8.112299795066065E+000
-9.7650295E-001	-1.467944758928752E-003	8.126599794704816E+000
-9.7750843E-001	-1.859147248173553E-003	8.140799794346094E+000
-9.7852618E-001	-2.237738833656524E-003	8.155199793982320E+000
-9.7952330E-001	-2.543388160669715E-003	8.169399793623597E+000
-9.8051834E-001	-2.833428884285893E-003	8.183699793262349E+000
-9.8154205E-001	-3.177453842113188E-003	8.197999792901101E+000
-9.8250347E-001	-3.482211790329662E-003	8.212299792539852E+000
-9.8351085E-001	-3.776005978636480E-003	8.226599792178604E+000
-9.8450565E-001	-4.060018729016221E-003	8.240799791819882E+000
-9.8551697E-001	-4.359356692892412E-003	8.255199791456107E+000
-9.8649764E-001	-4.672854804558341E-003	8.269399791097385E+000
-9.8749417E-001	-4.947375663752404E-003	8.283699790736136E+000
-9.8849535E-001	-5.214896863094509E-003	8.297999790374888E+000
-9.8946327E-001	-5.408900336139303E-003	8.312299790013640E+000
-9.9051356E-001	-5.628566607166846E-003	8.326599789652391E+000
-9.9146944E-001	-5.890861381052076E-003	8.340799789293669E+000
-9.9247789E-001	-6.106935877748274E-003	8.355199788929895E+000
-9.9346060E-001	-6.390138137968876E-003	8.369399788571172E+000
-9.9448425E-001	-6.583884570192378E-003	8.383699788209924E+000
-9.9545962E-001	-6.779465198405873E-003	8.397999787848676E+000
-9.9651164E-001	-6.929333614952585E-003	8.412299787487427E+000
-9.9747658E-001	-7.047934162907638E-003	8.426599787126179E+000
-9.9849200E-001	-7.238769871832990E-003	8.440799786767457E+000
-9.9952328E-001	-7.381477311128010E-003	8.455199786403682E+000
-1.0005289E+000	-7.564406913161278E-003	8.469399786044960E+000
-1.0015491E+000	-7.674893620573178E-003	8.483699785683712E+000
-1.0025111E+000	-7.785088013444380E-003	8.497999785322463E+000
-1.0035133E+000	-7.857543574041670E-003	8.512299784961215E+000
-1.0045239E+000	-7.930831295955926E-003	8.526599784599966E+000
-1.0054662E+000	-8.056137616260096E-003	8.540799784241244E+000
-1.0065305E+000	-8.176259809374642E-003	8.555199783877470E+000
-1.0075214E+000	-8.339351861915638E-003	8.569399783518747E+000
-1.0085131E+000	-8.433929890937497E-003	8.583699783157499E+000
-1.0094932E+000	-8.557557023739996E-003	8.597999782796251E+000
-1.0105159E+000	-8.633681589577835E-003	8.612299782435002E+000
-1.0115331E+000	-8.726370625898469E-003	8.626599782073754E+000
-1.0124985E+000	-8.896315358659528E-003	8.640799781715032E+000
-1.0135165E+000	-9.029211759828598E-003	8.655199781351257E+000
-1.0144683E+000	-9.241816399101779E-003	8.669399780992535E+000
-1.0155100E+000	-9.404849218658338E-003	8.683699780631287E+000
-1.0165187E+000	-9.572821031762657E-003	8.697999780270038E+000
-1.0175064E+000	-9.714519392284113E-003	8.712299779908790E+000
-1.0184672E+000	-9.898681149100710E-003	8.726599779547541E+000
-1.0194870E+000	-1.014962349264199E-002	8.740799779188819E+000
-1.0205133E+000	-1.039835312686443E-002	8.755199778825045E+000
-1.0214863E+000	-1.073190471822725E-002	8.769399778466322E+000
-1.0235022E+000	-1.100364453202138E-002	8.798699777726142E+000
-1.0255620E+000	-1.159766945253671E-002	8.827999776985962E+000
-1.0265821E+000	-1.188815641866170E-002	8.842299776624714E+000
-1.0275456E+000	-1.224606345052351E-002	8.856599776263465E+000
-1.0285546E+000	-1.261974632150975E-002	8.870799775904743E+000
-1.0295570E+000	-1.302621993477260E-002	8.885199775540968E+000
-1.0305411E+000	-1.340929017608988E-002	8.899399775182246E+000
-1.0315300E+000	-1.375434203095771E-002	8.913699774820998E+000
-1.0325499E+000	-1.416110407277910E-002	8.927999774459749E+000
-1.0335637E+000	-1.458316249310226E-002	8.942299774098501E+000
-1.0345585E+000	-1.495061886407713E-002	8.956599773737253E+000
-1.0355463E+000	-1.539623946177926E-002	8.970799773378531E+000
-1.0365423E+000	-1.592428398559301E-002	8.985199773014756E+000
-1.0375506E+000	-1.643027043921091E-002	8.999399772656034E+000
-1.0385343E+000	-1.688736129196907E-002	9.013699772294785E+000
-1.0395441E+000	-1.739906358996754E-002	9.027999771933537E+000
-1.0405519E+000	-1.788429359477074E-002	9.042299771572289E+000
-1.0415422E+000	-1.843450372742453E-002	9.056599771211040E+000
-1.0425327E+000	-1.893455527533657E-002	9.070799770852318E+000
-1.0435286E+000	-1.951415233277962E-002	9.085199770488543E+000
-1.0445287E+000	-2.025582226807879E-002	9.099399770129821E+000
-1.0454886E+000	-2.096277905026606E-002	9.113699769768573E+000
-1.0465013E+000	-2.169304390137461E-002	9.127999769407324E+000
-1.0475246E+000	-2.241923528624912E-002	9.142299769046076E+000
-1.0485300E+000	-2.331918000678951E-002	9.156599768684828E+000
-1.0495906E+000	-2.475430092620931E-002	9.170799768326106E+000
-1.0505366E+000	-2.631068500356076E-002	9.185199767962331E+000
-1.0515515E+000	-2.809912690599956E-002	9.199399767603609E+000
-1.0525535E+000	-3.001525714480047E-002	9.213699767242360E+000
-1.0535686E+000	-3.215045818418119E-002	9.227999766881112E+000
-1.0545539E+000	-3.501105769746338E-002	9.242299766519864E+000
-1.0555817E+000	-3.919122747129204E-002	9.256599766158615E+000
-1.0565488E+000	-4.455609047939402E-002	9.270799765799893E+000
-1.0575601E+000	-5.138169229424717E-002	9.285199765436118E+000
-1.0585470E+000	-5.906288479248656E-002	9.299399765077396E+000
-1.0595396E+000	-6.876351625019750E-002	9.313699764716148E+000
-1.0605274E+000	-8.124953801022139E-002	9.327999764354900E+000
-1.0615475E+000	-9.693609018666804E-002	9.342299763993651E+000
-1.0636128E+000	-1.398863750731141E-001	9.371599763253471E+000
-1.0656734E+000	-1.931210808531123E-001	9.400799762515817E+000
-1.0666591E+000	-2.247563714518037E-001	9.415199762152042E+000
-1.0676355E+000	-2.616341096933563E-001	9.429399761793320E+000
-1.0686318E+000	-3.082802478224034E-001	9.443699761432072E+000
-1.0696431E+000	-3.596268822414768E-001	9.457999761070823E+000
-1.0706040E+000	-4.092671662712313E-001	9.472299760709575E+000
-1.0716163E+000	-4.681811549792929E-001	9.486599760348327E+000
-1.0726126E+000	-5.241999042846147E-001	9.500799759989604E+000
-1.0736159E+000	-5.862818473639582E-001	9.515199759625830E+000
-1.0745611E+000	-6.549093364107357E-001	9.529399759267108E+000
-1.0756267E+000	-7.277952623052091E-001	9.543699758905859E+000
-1.0766177E+000	-7.990496803298219E-001	9.557999758544611E+000
-1.0776428E+000	-8.758023710921403E-001	9.572299758183362E+000
-1.0786548E+000	-9.617702849306298E-001	9.586599757822114E+000
-1.0795982E+000	-1.044445291471979E+000	9.600799757463392E+000
-1.0816793E+000	-1.241035596088931E+000	9.630199756720685E+000
-1.0837240E+000	-1.454550807276977E+000	9.659399755983031E+000
-1.0847298E+000	-1.552357168782214E+000	9.673699755621783E+000
-1.0857371E+000	-1.650704076106191E+000	9.687999755260535E+000
-1.0867659E+000	-1.757742533469810E+000	9.702299754899286E+000
-1.0877382E+000	-1.866103177812574E+000	9.716599754538038E+000
-1.0886976E+000	-1.964962177560651E+000	9.730799754179316E+000
-1.0897311E+000	-2.066689499682980E+000	9.745199753815541E+000
-1.0907283E+000	-2.169544192380274E+000	9.759399753456819E+000
-1.0917023E+000	-2.270988229175031E+000	9.773699753095570E+000
-1.0927526E+000	-2.380883922431774E+000	9.787999752734322E+000
-1.0937434E+000	-2.484833728904139E+000	9.802299752373074E+000
-1.0947669E+000	-2.586976461830403E+000	9.816599752011825E+000
-1.0956838E+000	-2.687670862777537E+000	9.830799751653103E+000
-1.0967135E+000	-2.787173888752790E+000	9.845199751289329E+000
-1.0976883E+000	-2.886212910952359E+000	9.859399750930606E+000
-1.0986925E+000	-2.985446079648440E+000	9.873699750569358E+000
-1.0997118E+000	-3.083762937438827E+000	9.887999750208110E+000
-1.1007282E+000	-3.182195369135105E+000	9.902299749846861E+000
-1.1017159E+000	-3.279248104605351E+000	9.916599749485613E+000
-1.1027915E+000	-3.377862829792626E+000	9.930799749126891E+000
-1.1037346E+000	-3.479362921265409E+000	9.945199748763116E+000
-1.1047106E+000	-3.577648497108996E+000	9.959399748404394E+000
-1.1057616E+000	-3.675427266630606E+000	9.973699748043146E+000
-1.1066775E+000	-3.774850863963366E+000	9.987999747681897E+000
-1.1077058E+000	-3.871936192229768E+000	1.000229974732065E+001
-1.1087419E+000	-3.969020104598400E+000	1.001659974695940E+001
-1.1097473E+000	-4.065300553357986E+000	1.003079974660068E+001
-1.1107509E+000	-4.162310108794662E+000	1.004519974623690E+001
-1.1116967E+000	-4.259499199300379E+000	1.005939974587818E+001
-1.1127119E+000	-4.363208733346216E+000	1.007369974551693E+001
-1.1137501E+000	-4.467169846272263E+000	1.008799974515568E+001
-1.1147188E+000	-4.562073134955689E+000	1.010229974479444E+001
-1.1157811E+000	-4.656392709274471E+000	1.011659974443319E+001
-1.1167594E+000	-4.749032117426388E+000	1.013079974407447E+001
-1.1177412E+000	-4.842299062758684E+000	1.014519974371069E+001
-1.1187516E+000	-4.935419514348421E+000	1.015939974335197E+001
-1.1197500E+000	-5.028482184444528E+000	1.017369974299072E+001
-1.1207176E+000	-5.120373791141901E+000	1.018799974262947E+001
-1.1217353E+000	-5.213291135086454E+000	1.020229974226822E+001
-1.1227385E+000	-5.305469079001341E+000	1.021659974190698E+001
-1.1237330E+000	-5.396844288722306E+000	1.023079974154825E+001
-1.1247139E+000	-5.489474247345520E+000	1.024519974118448E+001
-1.1257421E+000	-5.579732294466027E+000	1.025939974082576E+001
-1.1267787E+000	-5.672558457347066E+000	1.027369974046451E+001
-1.1277876E+000	-5.763752998784199E+000	1.028799974010326E+001
-1.1288134E+000	-5.854567290918965E+000	1.030229973974201E+001
-1.1297930E+000	-5.945193806352716E+000	1.031659973938076E+001
-1.1307484E+000	-6.034729674497314E+000	1.033079973902204E+001
-1.1317912E+000	-6.125549925840460E+000	1.034519973865827E+001
-1.1327653E+000	-6.215704174324244E+000	1.035939973829954E+001
-1.1337347E+000	-6.305252685722650E+000	1.037369973793830E+001
-1.1347911E+000	-6.395271847761840E+000	1.038799973757705E+001
-1.1357596E+000	-6.484185135440903E+000	1.040229973721580E+001
-1.1367633E+000	-6.573092803941080E+000	1.041659973685455E+001
-1.1377649E+000	-6.661939862727479E+000	1.043079973649583E+001
-1.1387653E+000	-6.751334657271709E+000	1.044519973613205E+001
-1.1397769E+000	-6.839111989907309E+000	1.045939973577333E+001
-1.1407803E+000	-6.927892654178972E+000	1.047369973541208E+001
-1.1417680E+000	-7.016307578150474E+000	1.048799973505083E+001
-1.1427494E+000	-7.104461395893310E+000	1.050229973468959E+001
-1.1437809E+000	-7.192198248580095E+000	1.051659973432834E+001
-1.1447378E+000	-7.279018915568770E+000	1.053079973396962E+001
-1.1457341E+000	-7.367354674109578E+000	1.054519973360584E+001
-1.1467394E+000	-7.454608452195906E+000	1.055939973324712E+001
-1.1477113E+000	-7.542876863708898E+000	1.057369973288587E+001
-1.1487689E+000	-7.631722993527866E+000	1.058799973252462E+001
-1.1497295E+000	-7.719046863684326E+000	1.060229973216337E+001
-1.1507167E+000	-7.807299507975884E+000	1.061659973180213E+001
-1.1517029E+000	-7.894214443823628E+000	1.063079973144340E+001
-1.1527524E+000	-7.982573020698828E+000	1.064519973107963E+001
-1.1537805E+000	-8.070192149180613E+000	1.065939973072091E+001
-1.1547204E+000	-8.157185645363278E+000	1.067369973035966E+001
-1.1557574E+000	-8.244581919706746E+000	1.068799972999841E+001
-1.1567683E+000	-8.332110433356872E+000	1.070229972963716E+001
-1.1577739E+000	-8.418712806305848E+000	1.071659972927591E+001
-1.1587554E+000	-8.504441486167096E+000	1.073079972891719E+001
-1.1597445E+000	-8.592359562598467E+000	1.074519972855342E+001
-1.1607271E+000	-8.679121716840541E+000	1.075939972819469E+001
-1.1617658E+000	-8.766004528907576E+000	1.077369972783345E+001
-1.1627381E+000	-8.853330888707802E+000	1.078799972747220E+001
-1.1637746E+000	-8.941107927071755E+000	1.080229972711095E+001
-1.1647365E+000	-9.031360871197364E+000	1.081659972674970E+001
-1.1657672E+000	-9.123309843012947E+000	1.083089972638845E+001
-1.1667584E+000	-9.210656969264761E+000	1.084519972602720E+001
-1.1677680E+000	-9.296876123175011E+000	1.085939972566848E+001
-1.1687636E+000	-9.383587793585559E+000	1.087369972530723E+001
-1.1697955E+000	-9.471870656784944E+000	1.088799972494598E+001
-1.1707417E+000	-9.558777102178510E+000	1.090229972458474E+001
-1.1717417E+000	-9.645252316685706E+000	1.091659972422349E+001
-1.1727377E+000	-9.731619913363808E+000	1.093079972386477E+001
-1.1737740E+000	-9.818213616536596E+000	1.094519972350099E+001
-1.1747745E+000	-9.904343155717157E+000	1.095939972314227E+001
-1.1757476E+000	-9.990947779898455E+000	1.097369972278102E+001
-1.1767457E+000	-1.007720219712547E+001	1.098799972241977E+001
-1.1777742E+000	-1.016381722818582E+001	1.100229972205852E+001
-1.1787575E+000	-1.024995869339912E+001	1.101659972169728E+001
-1.1797372E+000	-1.033587644650386E+001	1.103089972133603E+001
-1.1807632E+000	-1.042168339726047E+001	1.104519972097478E+001
-1.1817725E+000	-1.050627815832073E+001	1.105939972061606E+001
-1.1827685E+000	-1.059357422046986E+001	1.107379972025228E+001
-1.1837561E+000	-1.067822916957083E+001	1.108799971989356E+001
-1.1846730E+000	-1.076338714181611E+001	1.110229971953231E+001
-1.1856999E+000	-1.085001327043085E+001	1.111659971917106E+001
-1.1867547E+000	-1.093517046876440E+001	1.113089971880981E+001
-1.1887202E+000	-1.108728583603863E+001	1.116019971806963E+001
-1.1907992E+000	-1.124353973544198E+001	1.118939971733198E+001
-1.1918036E+000	-1.133063944995712E+001	1.120379971696821E+001
-1.1928445E+000	-1.141529872726341E+001	1.121799971660948E+001
-1.1938341E+000	-1.150098745547803E+001	1.123229971624824E+001
-1.1948427E+000	-1.158556263001325E+001	1.124659971588699E+001
-1.1958237E+000	-1.167177768976257E+001	1.126089971552574E+001
-1.1968348E+000	-1.175506154618532E+001	1.127519971516449E+001
-1.1978093E+000	-1.183867068689626E+001	1.128939971480577E+001
-1.1988213E+000	-1.192566821483581E+001	1.130379971444199E+001
-1.1998287E+000	-1.201056352583691E+001	1.131799971408327E+001
-1.2008268E+000	-1.209445912096746E+001	1.133229971372202E+001
-1.2014430E+000	-1.214025115966797E+001	1.133919971354771E+001
-1.2011566E+000	-1.213368002573651E+001	1.134059971351235E+001
-1.2007246E+000	-1.210477333966020E+001	1.134859971331025E+001
-1.1997060E+000	-1.205020478561829E+001	1.136279971295153E+001
-1.1987349E+000	-1.199291188724533E+001	1.137709971259028E+001
-1.1976936E+000	-1.193406708398834E+001	1.139139971222903E+001
-1.1967064E+000	-1.187650265158749E+001	1.140569971186778E+001
-1.1957083E+000	-1.182024137807696E+001	1.141999971150653E+001
-1.1947213E+000	-1.176139021261287E+001	1.143419971114781E+001
-1.1937267E+000	-1.170150814748683E+001	1.144859971078404E+001
-1.1927204E+000	-1.164026690678054E+001	1.146279971042532E+001
-1.1916767E+000	-1.158098913240127E+001	1.147709971006407E+001
-1.1906577E+000	-1.151819656090811E+001	1.149139970970282E+001
-1.1897209E+000	-1.145773482276843E+001	1.150569970934157E+001
-1.1887048E+000	-1.139854300844794E+001	1.151999970898032E+001
-1.1876860E+000	-1.133402793994173E+001	1.153419970862160E+001
-1.1867313E+000	-1.127247270639054E+001	1.154859970825783E+001
-1.1856905E+000	-1.121088879058758E+001	1.156279970789910E+001
-1.1846893E+000	-1.114804982730206E+001	1.157709970753785E+001
-1.1837456E+000	-1.108384873248478E+001	1.159139970717661E+001
-1.1827431E+000	-1.102217598863135E+001	1.160569970681536E+001
-1.1817112E+000	-1.095746848491640E+001	1.161999970645411E+001
-1.1807840E+000	-1.089520104213921E+001	1.163419970609539E+001
-1.1797627E+000	-1.083215005490152E+001	1.164859970573161E+001
-1.1787412E+000	-1.076673150419569E+001	1.166279970537289E+001
-1.1777641E+000	-1.070386268572926E+001	1.167709970501164E+001
-1.1767647E+000	-1.063879635825293E+001	1.169139970465039E+001
-1.1757630E+000	-1.057427748392027E+001	1.170569970428915E+001
-1.1747394E+000	-1.050701670740580E+001	1.171999970392790E+001
-1.1737627E+000	-1.044382497798176E+001	1.173429970356665E+001
-1.1727691E+000	-1.037728576366011E+001	1.174859970320540E+001
-1.1717503E+000	-1.031304847584882E+001	1.176279970284668E+001
-1.1707622E+000	-1.024656041994845E+001	1.177719970248290E+001
-1.1697472E+000	-1.018062550097244E+001	1.179139970212418E+001
-1.1686997E+000	-1.011483075779218E+001	1.180569970176293E+001
-1.1677214E+000	-1.004898525169122E+001	1.181999970140168E+001
-1.1667258E+000	-9.983995785044215E+000	1.183419970104296E+001
-1.1657231E+000	-9.916215333815984E+000	1.184859970067919E+001
-1.1647674E+000	-9.848850966043159E+000	1.186279970032047E+001
-1.1637641E+000	-9.781609133933642E+000	1.187719969995669E+001
-1.1627207E+000	-9.715308154777905E+000	1.189139969959797E+001
-1.1617429E+000	-9.648865953928436E+000	1.190569969923672E+001
-1.1607705E+000	-9.581295137836904E+000	1.191999969887547E+001
-1.1597247E+000	-9.510678097682103E+000	1.193429969851422E+001
-1.1587571E+000	-9.444474475186667E+000	1.194859969815298E+001
-1.1577719E+000	-9.376399802432118E+000	1.196279969779425E+001
-1.1567731E+000	-9.310365732759212E+000	1.197719969743048E+001
-1.1557401E+000	-9.242169345923106E+000	1.199139969707176E+001
-1.1547722E+000	-9.173932206439659E+000	1.200569969671051E+001
-1.1537611E+000	-9.108165859050743E+000	1.201999969634926E+001
-1.1527156E+000	-9.037902734600571E+000	1.203429969598801E+001
-1.1517286E+000	-8.969790211723506E+000	1.204859969562676E+001
-1.1507572E+000	-8.899645814672063E+000	1.206279969526804E+001
-1.1497246E+000	-8.831741455437921E+000	1.207719969490427E+001
-1.1487404E+000	-8.763927355913133E+000	1.209139969454554E+001
-1.1477441E+000	-8.696087769247015E+000	1.210569969418430E+001
-1.1467026E+000	-8.626963777079567E+000	1.211999969382305E+001
-1.1457243E+000	-8.557252068626596E+000	1.213429969346180E+001
-1.1447489E+000	-8.488464238393739E+000	1.214859969310055E+001
-1.1437255E+000	-8.420547433081069E+000	1.216279969274183E+001
-1.1427506E+000	-8.349821934360094E+000	1.217719969237805E+001
-1.1417521E+000	-8.281877281803929E+000	1.219139969201933E+001
-1.1407638E+000	-8.213611538822853E+000	1.220569969165808E+001
-1.1397619E+000	-8.143525245172597E+000	1.221999969129683E+001
-1.1387464E+000	-8.073076350375622E+000	1.223429969093559E+001
-1.1377517E+000	-8.005733301203335E+000	1.224859969057434E+001
-1.1367475E+000	-7.934853856296556E+000	1.226279969021562E+001
-1.1357462E+000	-7.867038777835365E+000	1.227719968985184E+001
-1.1347497E+000	-7.797683903559417E+000	1.229139968949312E+001
-1.1337075E+000	-7.726247058999846E+000	1.230569968913187E+001
-1.1327232E+000	-7.658098677561307E+000	1.231999968877062E+001
-1.1317208E+000	-7.586036187868869E+000	1.233429968840937E+001
-1.1307751E+000	-7.517914515958765E+000	1.234859968804813E+001
-1.1297616E+000	-7.448057722300312E+000	1.236279968768940E+001
-1.1287588E+000	-7.378662682254799E+000	1.237719968732563E+001
-1.1277454E+000	-7.308800492978946E+000	1.239139968696691E+001
-1.1267723E+000	-7.238869762344251E+000	1.240569968660566E+001
-1.1257509E+000	-7.166769373696297E+000	1.241999968624441E+001
-1.1247216E+000	-7.096082963049440E+000	1.243429968588316E+001
-1.1237360E+000	-7.026417455985211E+000	1.244859968552191E+001
-1.1227111E+000	-6.956459352707796E+000	1.246279968516319E+001
-1.1216741E+000	-6.885337443828277E+000	1.247719968479942E+001
-1.1206716E+000	-6.816472047513026E+000	1.249139968444069E+001
-1.1197214E+000	-6.745799275888842E+000	1.250569968407945E+001
-1.1187550E+000	-6.677472583716709E+000	1.251999968371820E+001
-1.1177187E+000	-6.605601719289226E+000	1.253429968335695E+001
-1.1167568E+000	-6.536833507047632E+000	1.254859968299570E+001
-1.1156965E+000	-6.465456318381868E+000	1.256279968263698E+001
-1.1147109E+000	-6.395326622955793E+000	1.257719968227320E+001
-1.1137346E+000	-6.324991744322080E+000	1.259139968191448E+001
-1.1127272E+000	-6.256150941206869E+000	1.260569968155323E+001
-1.1117537E+000	-6.186188536773727E+000	1.261999968119198E+001
-1.1107019E+000	-6.113282962066990E+000	1.263429968083074E+001
-1.1097087E+000	-6.045442838260612E+000	1.264859968046949E+001
-1.1087199E+000	-5.975245739488543E+000	1.266279968011077E+001
-1.1077086E+000	-5.903588258234478E+000	1.267719967974699E+001
-1.1067041E+000	-5.835669770681619E+000	1.269139967938827E+001
-1.1057283E+000	-5.765400659694166E+000	1.270569967902702E+001
-1.1047372E+000	-5.694405232051707E+000	1.271999967866577E+001
-1.1037456E+000	-5.623884372948069E+000	1.273429967830452E+001
-1.1027313E+000	-5.553164843101186E+000	1.274859967794328E+001
-1.1017621E+000	-5.482558845464752E+000	1.276279967758455E+001
-1.1007081E+000	-5.412248915449425E+000	1.277719967722078E+001
-1.0997119E+000	-5.343039988113243E+000	1.279139967686206E+001
-1.0987079E+000	-5.271051030395888E+000	1.280569967650081E+001
-1.0977180E+000	-5.202185975659333E+000	1.281999967613956E+001
-1.0967369E+000	-5.131408716279731E+000	1.283429967577831E+001
-1.0957280E+000	-5.060870929349534E+000	1.284859967541706E+001
-1.0947009E+000	-4.991650011157624E+000	1.286279967505834E+001
-1.0936890E+000	-4.921952958373979E+000	1.287719967469457E+001
-1.0927416E+000	-4.853269711874091E+000	1.289139967433584E+001
-1.0917366E+000	-4.782777883207949E+000	1.290569967397460E+001
-1.0907259E+000	-4.713242655736380E+000	1.291999967361335E+001
-1.0897286E+000	-4.643013932097411E+000	1.293429967325210E+001
-1.0887078E+000	-4.571495061061195E+000	1.294859967289085E+001
-1.0877163E+000	-4.502722360620595E+000	1.296279967253213E+001
-1.0856262E+000	-4.380155667923731E+000	1.299219967178942E+001
-1.0836630E+000	-4.258585024120595E+000	1.302139967105177E+001
-1.0826068E+000	-4.188589557508628E+000	1.303569967069052E+001
-1.0816122E+000	-4.119309462975561E+000	1.304999967032927E+001
-1.0806199E+000	-4.050224754634568E+000	1.306429966996802E+001
-1.0796117E+000	-3.980609741391774E+000	1.307859966960677E+001
-1.0786072E+000	-3.911438839684706E+000	1.309279966924805E+001
-1.0776185E+000	-3.841742115677320E+000	1.310719966888428E+001
-1.0766016E+000	-3.773320301455286E+000	1.312139966852556E+001
-1.0756371E+000	-3.703706255173064E+000	1.313569966816431E+001
-1.0746332E+000	-3.634581923310165E+000	1.314999966780306E+001
-1.0736312E+000	-3.565400919356414E+000	1.316429966744181E+001
-1.0726000E+000	-3.495718215010127E+000	1.317859966708056E+001
-1.0716140E+000	-3.427378343767487E+000	1.319279966672184E+001
-1.0706540E+000	-3.358746645525869E+000	1.320719966635806E+001
-1.0696712E+000	-3.289881548650257E+000	1.322139966599934E+001
-1.0686603E+000	-3.221991710364819E+000	1.323569966563809E+001
-1.0676486E+000	-3.153934224974357E+000	1.324999966527685E+001
-1.0666330E+000	-3.084661390116565E+000	1.326429966491560E+001
-1.0656329E+000	-3.016793362815704E+000	1.327859966455435E+001
-1.0646460E+000	-2.948456973400118E+000	1.329279966419563E+001
-1.0636774E+000	-2.879979492126338E+000	1.330719966383185E+001
-1.0626626E+000	-2.812631615311439E+000	1.332139966347313E+001
-1.0616883E+000	-2.745154313255952E+000	1.333569966311188E+001
-1.0606325E+000	-2.677653839122893E+000	1.334999966275063E+001
-1.0596656E+000	-2.609327318271005E+000	1.336429966238939E+001
-1.0586615E+000	-2.541814187929660E+000	1.337859966202814E+001
-1.0576497E+000	-2.475020780684034E+000	1.339279966166941E+001
-1.0566136E+000	-2.406948815623773E+000	1.340719966130564E+001
-1.0556552E+000	-2.341015871575411E+000	1.342139966094692E+001
-1.0546371E+000	-2.274788668761282E+000	1.343569966058567E+001
-1.0536492E+000	-2.207717435153127E+000	1.344999966022442E+001
-1.0526222E+000	-2.141212670285352E+000	1.346429965986317E+001
-1.0516430E+000	-2.074952531149997E+000	1.347859965950192E+001
-1.0506734E+000	-2.008773068557879E+000	1.349279965914320E+001
-1.0496664E+000	-1.942601502475249E+000	1.350719965877943E+001
-1.0486506E+000	-1.875817252778997E+000	1.352139965842071E+001
-1.0476434E+000	-1.810403408721463E+000	1.353569965805946E+001
-1.0466235E+000	-1.745125944347819E+000	1.354999965769821E+001
-1.0456493E+000	-1.680060466378926E+000	1.356429965733696E+001
-1.0446613E+000	-1.615571910010964E+000	1.357859965697571E+001
-1.0436347E+000	-1.550704518575611E+000	1.359279965661699E+001
-1.0426635E+000	-1.487060344884714E+000	1.360719965625321E+001
-1.0416495E+000	-1.424205146797856E+000	1.362139965589449E+001
-1.0406420E+000	-1.360434807813132E+000	1.363569965553324E+001
-1.0396539E+000	-1.297645133527112E+000	1.364999965517200E+001
-1.0386670E+000	-1.235016981115898E+000	1.366429965481075E+001
-1.0376164E+000	-1.172185280796841E+000	1.367859965444950E+001
-1.0366002E+000	-1.111029871147669E+000	1.369279965409078E+001
-1.0356393E+000	-1.049818859144581E+000	1.370719965372700E+001
-1.0346277E+000	-9.894322937955913E-001	1.372139965336828E+001
-1.0336131E+000	-9.297432809160693E-001	1.373569965300703E+001
-1.0325927E+000	-8.703342813047739E-001	1.374999965264578E+001
-1.0315912E+000	-8.118297165737314E-001	1.376429965228454E+001
-1.0306274E+000	-7.538232354515122E-001	1.377859965192329E+001
-1.0296401E+000	-6.974379538150997E-001	1.379279965156456E+001
-1.0286090E+000	-6.415308464129339E-001	1.380719965120079E+001
-1.0276195E+000	-5.869300978107871E-001	1.382139965084207E+001
-1.0266460E+000	-5.335548077327896E-001	1.383569965048082E+001
-1.0256459E+000	-4.817287003121826E-001	1.384999965011957E+001
-1.0246660E+000	-4.307564001769215E-001	1.386429964975832E+001
-1.0236611E+000	-3.818812098470517E-001	1.387859964939707E+001
-1.0226579E+000	-3.354448591950741E-001	1.389279964903835E+001
-1.0205985E+000	-2.494152481796085E-001	1.392219964829565E+001
-1.0185153E+000	-1.726204446828578E-001	1.395139964755799E+001
-1.0175592E+000	-1.396842936059848E-001	1.396569964719674E+001
-1.0165755E+000	-1.098338778998973E-001	1.397999964683549E+001
-1.0155462E+000	-8.324036166155468E-002	1.399429964647425E+001
-1.0145955E+000	-5.990513939408015E-002	1.400859964611300E+001
-1.0135558E+000	-3.973952373295719E-002	1.402279964575428E+001
-1.0125830E+000	-2.191038078187069E-002	1.403719964539050E+001
-1.0115516E+000	-6.068765900166057E-003	1.405139964503178E+001
-1.0105727E+000	8.890333689132841E-003	1.406569964467053E+001
-1.0095935E+000	2.408195566689147E-002	1.407999964430928E+001
-1.0085570E+000	4.040083567976038E-002	1.409429964394803E+001
-1.0075577E+000	5.832574154434654E-002	1.410859964358679E+001
-1.0065778E+000	7.861370531524403E-002	1.412279964322806E+001
-1.0055953E+000	1.021954139032459E-001	1.413719964286429E+001
-1.0045830E+000	1.281964781440671E-001	1.415139964250557E+001
-1.0035882E+000	1.573900675872721E-001	1.416569964214432E+001
-1.0025893E+000	1.906155594260777E-001	1.417999964178307E+001
-1.0015649E+000	2.266795559690742E-001	1.419429964142182E+001
-1.0006095E+000	2.658860762397435E-001	1.420859964106057E+001
-9.9959922E-001	3.076065279140803E-001	1.422279964070185E+001
-9.9855906E-001	3.527889716339505E-001	1.423719964033808E+001
-9.9758118E-001	4.015369404999859E-001	1.425139963997935E+001
-9.9656761E-001	4.522087081454877E-001	1.426569963961811E+001
-9.9555296E-001	5.057245580780227E-001	1.427999963925686E+001
-9.9458092E-001	5.615473814284755E-001	1.429429963889561E+001
-9.9355328E-001	6.192046188152744E-001	1.430859963853436E+001
-9.9255115E-001	6.790065281917732E-001	1.432279963817564E+001
-9.9154532E-001	7.401582783835110E-001	1.433719963781186E+001
-9.9055171E-001	8.023949161336850E-001	1.435139963745314E+001
-9.8956496E-001	8.674017216675947E-001	1.436569963709189E+001
-9.8857343E-001	9.326868336841816E-001	1.437999963673064E+001
-9.8758727E-001	9.992691983683750E-001	1.439429963636940E+001
-9.8659587E-001	1.067018040829375E+000	1.440859963600815E+001
-9.8348677E-001	1.283449442042425E+000	1.445279963489156E+001
-9.8244786E-001	1.353295197773455E+000	1.446719963452779E+001
-9.8148727E-001	1.423129152545400E+000	1.448139963416907E+001
-9.8048574E-001	1.493383161456155E+000	1.449569963380782E+001
-9.7944719E-001	1.564100625798651E+000	1.450999963344657E+001
-9.7848719E-001	1.634357355878908E+000	1.452429963308532E+001
-9.7747624E-001	1.704834267351551E+000	1.453859963272407E+001
-9.7646505E-001	1.776512069433618E+000	1.455279963236535E+001
-9.7548038E-001	1.848052282924380E+000	1.456719963200158E+001
-9.7447640E-001	1.919052233405340E+000	1.458139963164285E+001
-9.7346455E-001	1.991671378891439E+000	1.459569963128160E+001
-9.7246116E-001	2.063808260010163E+000	1.460999963092036E+001
-9.7144073E-001	2.135725208954543E+000	1.462429963055911E+001
-9.7047156E-001	2.208298651967201E+000	1.463859963019786E+001
-9.6947378E-001	2.279651594134830E+000	1.465279962983914E+001
-9.6843588E-001	2.352143539891888E+000	1.466719962947536E+001
-9.6743667E-001	2.424798733525676E+000	1.468139962911664E+001
-9.6644664E-001	2.497348072131478E+000	1.469569962875539E+001
-9.6546185E-001	2.569426957770098E+000	1.470999962839414E+001
-9.6445394E-001	2.641967348496504E+000	1.472429962803290E+001
-9.6347439E-001	2.714565025361181E+000	1.473859962767165E+001
-9.6248430E-001	2.786634808949515E+000	1.475279962731292E+001
-9.6149623E-001	2.859749472583644E+000	1.476719962694915E+001
-9.6046245E-001	2.932682134967763E+000	1.478139962659043E+001
-9.5951474E-001	3.005583654286774E+000	1.479569962622918E+001
-9.5848042E-001	3.078344696705855E+000	1.480999962586793E+001
-9.5746911E-001	3.151648413294396E+000	1.482429962550668E+001
-9.5649755E-001	3.223907868785318E+000	1.483859962514543E+001
-9.5547217E-001	3.295730061926115E+000	1.485279962478671E+001
-9.5445991E-001	3.369785732376222E+000	1.486719962442294E+001
-9.5351130E-001	3.442073320193847E+000	1.488139962406422E+001
-9.5250499E-001	3.514741822580490E+000	1.489569962370297E+001
-9.5149678E-001	3.588549946978070E+000	1.490999962334172E+001
-9.5053184E-001	3.660900278828848E+000	1.492429962298047E+001
-9.4948238E-001	3.733606551463406E+000	1.493859962261922E+001
-9.4849706E-001	3.806039378784291E+000	1.495279962226050E+001
-9.4749242E-001	3.879313891074474E+000	1.496719962189673E+001
-9.4644040E-001	3.953706848415720E+000	1.498139962153800E+001
-9.4545299E-001	4.027030592258910E+000	1.499569962117675E+001
-9.4444573E-001	4.100516191198651E+000	1.500999962081551E+001
-9.4347918E-001	4.173291824337781E+000	1.502429962045426E+001
-9.4249076E-001	4.245550226536587E+000	1.503859962009301E+001
-9.4147170E-001	4.318263610805538E+000	1.505279961973429E+001
-9.4047552E-001	4.390902011034385E+000	1.506719961937051E+001
-9.3945307E-001	4.463171481581707E+000	1.508139961901179E+001
-9.3844575E-001	4.536687376560308E+000	1.509569961865054E+001
-9.3743783E-001	4.609385382888526E+000	1.510999961828929E+001
-9.3647379E-001	4.682027800266560E+000	1.512429961792805E+001
-9.3548745E-001	4.754618073328544E+000	1.513859961756680E+001
-9.3444842E-001	4.826399822156722E+000	1.515279961720807E+001
-9.3350554E-001	4.898908934323117E+000	1.516719961684430E+001
-9.3248022E-001	4.971126019780058E+000	1.518139961648558E+001
-9.3150955E-001	5.043923343870901E+000	1.519569961612433E+001
-9.3046999E-001	5.116566377905315E+000	1.520999961576308E+001
-9.2945719E-001	5.189001374997375E+000	1.522429961540183E+001
-9.2846483E-001	5.261456600506797E+000	1.523859961504058E+001
-9.2746633E-001	5.332680060974482E+000	1.525279961468186E+001
-9.2649329E-001	5.404396301542874E+000	1.526719961431809E+001
-9.2545867E-001	5.476982598930300E+000	1.528139961395937E+001
-9.2448574E-001	5.548831196473202E+000	1.529569961359812E+001
-9.2352265E-001	5.621086183741383E+000	1.530999961323687E+001
-9.2251456E-001	5.693692700679495E+000	1.532429961287562E+001
-9.2149270E-001	5.766171992445976E+000	1.533859961251437E+001
-9.2042094E-001	5.840548335962609E+000	1.535279961215565E+001
-9.1941345E-001	5.912558181638204E+000	1.536719961179188E+001
-9.1842192E-001	5.983669821289361E+000	1.538139961143315E+001
-9.1742784E-001	6.055534062056964E+000	1.539569961107190E+001
-9.1640937E-001	6.127680414395101E+000	1.540999961071066E+001
-9.1540182E-001	6.199310654745645E+000	1.542429961034941E+001
-9.1445053E-001	6.270138831731565E+000	1.543859960998816E+001
-9.1346765E-001	6.340496081975310E+000	1.545279960962944E+001
-9.1240126E-001	6.412532108991087E+000	1.546719960926566E+001
-9.1139454E-001	6.483046268578619E+000	1.548139960890694E+001
-9.1044104E-001	6.553802466698192E+000	1.549569960854569E+001
-9.0945733E-001	6.626414907203696E+000	1.550999960818444E+001
-9.0843064E-001	6.697257804717765E+000	1.552429960782320E+001
-9.0743977E-001	6.768003825292318E+000	1.553859960746195E+001
-9.0645981E-001	6.838875084960222E+000	1.555279960710322E+001
-9.0545267E-001	6.908778805518523E+000	1.556719960673945E+001
-9.0447986E-001	6.978399071609630E+000	1.558139960638073E+001
-9.0346706E-001	7.049617909200677E+000	1.559569960601948E+001
-9.0246749E-001	7.120590519858538E+000	1.560999960565823E+001
-9.0147775E-001	7.190768130696760E+000	1.562429960529698E+001
-9.0046579E-001	7.261070984066464E+000	1.563859960493573E+001
-8.9952141E-001	7.330384340059638E+000	1.565279960457701E+001
-8.9844757E-001	7.400360546579293E+000	1.566719960421324E+001
-8.9747989E-001	7.469285360110604E+000	1.568139960385452E+001
-8.9643621E-001	7.539416665793993E+000	1.569569960349327E+001
-8.9542240E-001	7.611269314967444E+000	1.570999960313202E+001
-8.9444828E-001	7.681076915447534E+000	1.572429960277077E+001
-8.9345270E-001	7.750654405332170E+000	1.573859960240952E+001
-8.9245027E-001	7.818946809003462E+000	1.575279960205080E+001
-8.9143193E-001	7.887225106048088E+000	1.576719960168703E+001
-8.9047110E-001	7.956290472027220E+000	1.578139960132830E+001
-8.8943291E-001	8.024322572121264E+000	1.579569960096705E+001
-8.8846117E-001	8.092858136941999E+000	1.580999960060581E+001
-8.8746953E-001	8.161637973823559E+000	1.582429960024456E+001
-8.8642985E-001	8.229192447576992E+000	1.583859959988331E+001
-8.8544577E-001	8.296472643540909E+000	1.585279959952459E+001
-8.8448077E-001	8.363668669597260E+000	1.586719959916081E+001
-8.8345522E-001	8.430486905543759E+000	1.588139959880209E+001
-8.8248390E-001	8.497152054271623E+000	1.589569959844084E+001
-8.8147831E-001	8.563692823673293E+000	1.590999959807959E+001
-8.8045275E-001	8.630924499799079E+000	1.592429959771835E+001
-8.7947369E-001	8.696615361647375E+000	1.593859959735710E+001
-8.7846589E-001	8.761251665496587E+000	1.595279959699837E+001
-8.7740988E-001	8.827271406344742E+000	1.596719959663460E+001
-8.7642241E-001	8.891480415555016E+000	1.598139959627588E+001
-8.7546128E-001	8.956405634872411E+000	1.599569959591463E+001
-8.7447691E-001	9.021872637521803E+000	1.600999959555338E+001
-8.7345386E-001	9.086085348366208E+000	1.602429959519213E+001
-8.7241596E-001	9.149663656484307E+000	1.603859959483088E+001
-8.7145138E-001	9.213395860434190E+000	1.605279959447216E+001
-8.7043041E-001	9.276322219908863E+000	1.606719959410839E+001
-8.6945462E-001	9.339034924671623E+000	1.608139959374967E+001
-8.6846453E-001	9.401465452749022E+000	1.609569959338842E+001
-8.6745787E-001	9.463458263858527E+000	1.610999959302717E+001
-8.6643696E-001	9.525379294348092E+000	1.612429959266592E+001
-8.6541915E-001	9.585827869052697E+000	1.613859959230467E+001
-8.6447734E-001	9.646255292502872E+000	1.615279959194595E+001
-8.6342758E-001	9.705955578130670E+000	1.616719959158218E+001
-8.6245811E-001	9.764794190491870E+000	1.618139959122345E+001
-8.6145949E-001	9.824742292861135E+000	1.619569959086220E+001
-8.6048466E-001	9.883116456641176E+000	1.620999959050096E+001
-8.5947210E-001	9.940318654401182E+000	1.622429959013971E+001
-8.5843706E-001	9.998105894774206E+000	1.623859958977846E+001
-8.5747695E-001	1.005372196191453E+001	1.625279958941974E+001
-8.5647851E-001	1.010994662612211E+001	1.626719958905596E+001
-8.5546935E-001	1.016498388920444E+001	1.628139958869724E+001
-8.5451502E-001	1.021908807185216E+001	1.629569958833599E+001
-8.5344803E-001	1.027236051698367E+001	1.630999958797474E+001
-8.5249442E-001	1.032436514137652E+001	1.632429958761350E+001
-8.5148013E-001	1.037518734616850E+001	1.633859958725225E+001
-8.5055715E-001	1.042483952024489E+001	1.635279958689353E+001
-8.4950113E-001	1.047406943802099E+001	1.636719958652975E+001
-8.4850568E-001	1.052315563925850E+001	1.638139958617103E+001
-8.4748816E-001	1.057131471121924E+001	1.639569958580978E+001
-8.4648675E-001	1.061814400825338E+001	1.640999958544853E+001
-8.4552830E-001	1.066448539484014E+001	1.642429958508728E+001
-8.4451777E-001	1.070873892136541E+001	1.643859958472603E+001
-8.4347910E-001	1.075263929980184E+001	1.645279958436731E+001
-8.4247494E-001	1.079540005780291E+001	1.646719958400354E+001
-8.4149557E-001	1.083662851717475E+001	1.648139958364482E+001
-8.4047019E-001	1.087567339871941E+001	1.649569958328357E+001
-8.3944780E-001	1.091491506570794E+001	1.650999958292232E+001
-8.3848304E-001	1.095237791175259E+001	1.652429958256107E+001
-8.3646566E-001	1.104013158516769E+001	1.655359958182089E+001
-8.3436930E-001	1.113188082736455E+001	1.658279958108324E+001
-8.3336383E-001	1.116076605995966E+001	1.659719958071946E+001
-8.3235335E-001	1.118961391691118E+001	1.661139958036074E+001
-8.3138001E-001	1.121273355957797E+001	1.662569957999949E+001
-8.3039743E-001	1.123419903707691E+001	1.663999957963824E+001
-8.2936132E-001	1.125486273337637E+001	1.665429957927699E+001
-8.2836807E-001	1.126783888010931E+001	1.666859957891575E+001
-8.2740897E-001	1.127971823117697E+001	1.668279957855702E+001
-8.2635409E-001	1.129287205838287E+001	1.669719957819325E+001
-8.2540387E-001	1.129947997163976E+001	1.671139957783453E+001
-8.2436603E-001	1.130710271658037E+001	1.672569957747328E+001
-8.2338595E-001	1.131057683619048E+001	1.673999957711203E+001
-8.2240033E-001	1.130820081990500E+001	1.675429957675078E+001
-8.2139444E-001	1.129489712044598E+001	1.676859957638953E+001
-8.2037550E-001	1.128451696923000E+001	1.678279957603081E+001
-8.1933624E-001	1.126826036519685E+001	1.679719957566704E+001
-8.1835490E-001	1.124608695755398E+001	1.681139957530831E+001
-8.1735808E-001	1.122329381948867E+001	1.682569957494707E+001
-8.1635261E-001	1.119545501229979E+001	1.683999957458582E+001
-8.1535441E-001	1.115090442231067E+001	1.685429957422457E+001
-8.1435239E-001	1.111802903046674E+001	1.686859957386332E+001
-8.1333035E-001	1.108328026051939E+001	1.688279957350460E+001
-8.1234568E-001	1.103409735885606E+001	1.689719957314082E+001
-8.1131876E-001	1.098224824069380E+001	1.691139957278210E+001
-8.1032836E-001	1.092225537338318E+001	1.692569957242085E+001
-8.0937433E-001	1.085827413601024E+001	1.693999957205961E+001
-8.0834204E-001	1.079181798367932E+001	1.695429957169836E+001
-8.0729067E-001	1.071648731024470E+001	1.696859957133711E+001
-8.0635178E-001	1.063412651832286E+001	1.698289957097586E+001
-8.0535680E-001	1.054138482994554E+001	1.699719957061461E+001
-8.0435556E-001	1.043759663608705E+001	1.701139957025589E+001
-8.0331922E-001	1.032045317911181E+001	1.702569956989464E+001
-8.0237204E-001	1.019658981581841E+001	1.703999956953339E+001
-8.0134743E-001	1.006144493864133E+001	1.705429956917214E+001
-8.0035043E-001	9.909365973202512E+000	1.706859956881090E+001
-7.9933107E-001	9.759103558384467E+000	1.708289956844965E+001
-7.9834080E-001	9.597154877924652E+000	1.709719956808840E+001
-7.9738140E-001	9.417275713834272E+000	1.711139956772968E+001
-7.9635900E-001	9.212656051153338E+000	1.712579956736590E+001
-7.9537898E-001	9.001887345803016E+000	1.713999956700718E+001
-7.9433304E-001	8.780773203686266E+000	1.715429956664593E+001
-7.9338568E-001	8.550555420651406E+000	1.716859956628468E+001
-7.9235655E-001	8.323272827191246E+000	1.718289956592344E+001
-7.9134214E-001	8.091197935243446E+000	1.719719956556219E+001
-7.9038388E-001	7.851220590799761E+000	1.721139956520346E+001
-7.8933185E-001	7.630346966635742E+000	1.722579956483969E+001
-7.8837347E-001	7.418919272255181E+000	1.723999956448097E+001
-7.8732353E-001	7.197890947147840E+000	1.725429956411972E+001
-7.8636819E-001	7.004633070202544E+000	1.726859956375847E+001
-7.8536779E-001	6.816548304565455E+000	1.728289956339722E+001
-7.8438818E-001	6.653691258281480E+000	1.729719956303597E+001
-7.8339481E-001	6.487526647164486E+000	1.731139956267725E+001
-7.8231978E-001	6.320984512179464E+000	1.732579956231348E+001
-7.8141642E-001	6.189818812223773E+000	1.733999956195476E+001
-7.8031486E-001	6.044614764856988E+000	1.735429956159351E+001
-7.7932364E-001	5.917768278857722E+000	1.736859956123226E+001
-7.7836049E-001	5.767523742639121E+000	1.738289956087101E+001
-7.7736700E-001	5.635890908655728E+000	1.739719956050976E+001
-7.7638227E-001	5.508063594403183E+000	1.741139956015104E+001
-7.7535272E-001	5.397117337425385E+000	1.742579955978727E+001
-7.7435124E-001	5.279389763444975E+000	1.743999955942854E+001
-7.7335227E-001	5.165140428508721E+000	1.745429955906729E+001
-7.7237451E-001	5.052265007495095E+000	1.746859955870605E+001
-7.7140099E-001	4.944264129778546E+000	1.748289955834480E+001
-7.7036917E-001	4.840691661384582E+000	1.749719955798355E+001
-7.6933831E-001	4.755497359437868E+000	1.751139955762483E+001
-7.6835448E-001	4.636067757829260E+000	1.752579955726105E+001
-7.6735789E-001	4.535134246398229E+000	1.753999955690233E+001
-7.6639116E-001	4.426241485640780E+000	1.755429955654108E+001
-7.6432204E-001	4.207944720664344E+000	1.758359955580090E+001
-7.6223904E-001	3.996895928394352E+000	1.761289955506072E+001
-7.6125014E-001	3.915781600478439E+000	1.762719955469947E+001
-7.6024592E-001	3.839041827634595E+000	1.764139955434075E+001
-7.5923413E-001	3.769004847757369E+000	1.765579955397698E+001
-7.5822508E-001	3.703963741446694E+000	1.766999955361825E+001
-7.5727886E-001	3.630367041092661E+000	1.768429955325701E+001
-7.5624728E-001	3.536102742732810E+000	1.769859955289576E+001
-7.5524509E-001	3.463940751170512E+000	1.771289955253451E+001
-7.5422603E-001	3.401601158878002E+000	1.772719955217326E+001
-7.5323838E-001	3.333688552142114E+000	1.774139955181454E+001
-7.5228643E-001	3.262753901479300E+000	1.775579955145076E+001
-7.5125962E-001	3.212901974950611E+000	1.776999955109204E+001
-7.5026876E-001	3.145974546556289E+000	1.778429955073079E+001
-7.4924809E-001	3.068926949286833E+000	1.779859955036954E+001
-7.4825901E-001	3.015756574655192E+000	1.781289955000830E+001
-7.4727046E-001	2.970159166259698E+000	1.782719954964705E+001
-7.4628621E-001	2.920729968250576E+000	1.784139954928833E+001
-7.4531478E-001	2.868739694376330E+000	1.785579954892455E+001
-7.4430370E-001	2.820587118253275E+000	1.786999954856583E+001
-7.4328583E-001	2.772908847129486E+000	1.788429954820458E+001
-7.4228793E-001	2.729660149392046E+000	1.789859954784333E+001
-7.4123877E-001	2.671099556399838E+000	1.791289954748208E+001
-7.4026275E-001	2.629480694003476E+000	1.792719954712084E+001
-7.3924690E-001	2.563672588449361E+000	1.794139954676211E+001
-7.3824185E-001	2.524844547898596E+000	1.795579954639834E+001
-7.3729706E-001	2.502214469073806E+000	1.796999954603962E+001
-7.3628765E-001	2.469354010688576E+000	1.798429954567837E+001
-7.3524886E-001	2.447858952402996E+000	1.799859954531712E+001
-7.3429447E-001	2.404319872812209E+000	1.801289954495587E+001
-7.3326421E-001	2.368819183543870E+000	1.802719954459462E+001
-7.3226535E-001	2.318726554231644E+000	1.804139954423590E+001
-7.3128742E-001	2.281398715393145E+000	1.805579954387213E+001
-7.3025239E-001	2.238138690619959E+000	1.806999954351340E+001
-7.2924334E-001	2.189059787491971E+000	1.808429954315216E+001
-7.2827876E-001	2.166821214806987E+000	1.809859954279091E+001
-7.2724438E-001	2.146656733197286E+000	1.811289954242966E+001
-7.2625107E-001	2.124598970481505E+000	1.812719954206841E+001
-7.2529477E-001	2.095895774875927E+000	1.814139954170969E+001
-7.2425556E-001	2.065870937338325E+000	1.815579954134591E+001
-7.2328818E-001	2.038088084072418E+000	1.816999954098719E+001
-7.2228169E-001	1.993605438782247E+000	1.818429954062594E+001
-7.2125167E-001	1.914239095194105E+000	1.819859954026470E+001
-7.2026503E-001	1.871456614213106E+000	1.821289953990345E+001
-7.1928102E-001	1.839767040626619E+000	1.822719953954220E+001
-7.1829772E-001	1.825398878107080E+000	1.824139953918348E+001
-7.1731246E-001	1.816434049338570E+000	1.825579953881970E+001
-7.1628559E-001	1.796890867127027E+000	1.826999953846098E+001
-7.1525764E-001	1.760536119704831E+000	1.828429953809973E+001
-7.1421528E-001	1.726216504602533E+000	1.829859953773848E+001
-7.1325594E-001	1.697449566901502E+000	1.831289953737723E+001
-7.1224892E-001	1.663808002835141E+000	1.832719953701599E+001
-7.1124274E-001	1.642438405659056E+000	1.834139953665726E+001
-7.1027023E-001	1.602876604883935E+000	1.835579953629349E+001
-7.0928371E-001	1.598183877455695E+000	1.836999953593477E+001
-7.0823991E-001	1.587660160756265E+000	1.838429953557352E+001
-7.0725983E-001	1.580225282649430E+000	1.839859953521227E+001
-7.0624918E-001	1.549873944228659E+000	1.841289953485102E+001
-7.0526040E-001	1.537453113346906E+000	1.842719953448977E+001
-7.0422548E-001	1.516928172874037E+000	1.844139953413105E+001
-7.0319396E-001	1.505827199881121E+000	1.845579953376728E+001
-7.0221186E-001	1.489257870591246E+000	1.846999953340855E+001
-7.0125473E-001	1.477164087349017E+000	1.848429953304731E+001
-7.0027757E-001	1.478993758452509E+000	1.849859953268606E+001
-6.9927478E-001	1.482800889788923E+000	1.851289953232481E+001
-6.9824147E-001	1.472544723209765E+000	1.852719953196356E+001
-6.9724363E-001	1.448367209969248E+000	1.854139953160484E+001
-6.9625455E-001	1.415276099733696E+000	1.855579953124106E+001
-6.9522965E-001	1.400840872326322E+000	1.856999953088234E+001
-6.9423872E-001	1.392094126052397E+000	1.858429953052109E+001
-6.9328964E-001	1.385886738751040E+000	1.859859953015985E+001
-6.9225895E-001	1.362351135279120E+000	1.861289952979860E+001
-6.9127434E-001	1.362908840475331E+000	1.862719952943735E+001
-6.9022667E-001	1.371417333658123E+000	1.864139952907863E+001
-6.8926799E-001	1.354212005768204E+000	1.865579952871485E+001
-6.8823904E-001	1.346736807138466E+000	1.866999952835613E+001
-6.8721545E-001	1.326712349515701E+000	1.868429952799488E+001
-6.8624020E-001	1.318580546362984E+000	1.869859952763363E+001
-6.8522370E-001	1.320550322656831E+000	1.871289952727238E+001
-6.8424338E-001	1.310308224055914E+000	1.872719952691114E+001
-6.8326372E-001	1.300958841001069E+000	1.874139952655241E+001
-6.8223363E-001	1.269550374345275E+000	1.875579952618864E+001
-6.8124837E-001	1.258267815249077E+000	1.876999952582992E+001
-6.8024981E-001	1.234498483797490E+000	1.878429952546867E+001
-6.7928028E-001	1.231229042231764E+000	1.879859952510742E+001
-6.7823988E-001	1.213982750824051E+000	1.881289952474617E+001
-6.7722291E-001	1.205680398081311E+000	1.882719952438492E+001
-6.7622554E-001	1.196295266709059E+000	1.884139952402620E+001
-6.7524952E-001	1.188602936187336E+000	1.885579952366243E+001
-6.7428362E-001	1.187658294414481E+000	1.886999952330370E+001
-6.7328173E-001	1.183327885392387E+000	1.888429952294246E+001
-6.7228132E-001	1.166069001395954E+000	1.889859952258121E+001
-6.7124736E-001	1.168913739413407E+000	1.891289952221996E+001
-6.7026705E-001	1.170823814531713E+000	1.892719952185871E+001
-6.6925514E-001	1.169634102610868E+000	1.894139952149999E+001
-6.6826332E-001	1.163785468364948E+000	1.895579952113621E+001
-6.6726345E-001	1.167443621966716E+000	1.896999952077749E+001
-6.6626585E-001	1.156354781116047E+000	1.898429952041624E+001
-6.6526300E-001	1.144970809754650E+000	1.899859952005500E+001
-6.6426355E-001	1.132024075506397E+000	1.901289951969375E+001
-6.6325659E-001	1.124363874677025E+000	1.902719951933250E+001
-6.6227448E-001	1.103707665189480E+000	1.904139951897378E+001
-6.6123945E-001	1.070739413529131E+000	1.905579951861000E+001
-6.6023630E-001	1.061979559914720E+000	1.906999951825128E+001
-6.5928775E-001	1.050712718962669E+000	1.908429951789003E+001
-6.5827245E-001	1.035679603985045E+000	1.909859951752878E+001
-6.5727800E-001	1.045359248228564E+000	1.911289951716753E+001
-6.5627384E-001	1.044967884741103E+000	1.912719951680629E+001
-6.5527326E-001	1.038740012780179E+000	1.914139951644756E+001
-6.5424854E-001	1.024524715787264E+000	1.915579951608379E+001
-6.5322453E-001	1.023337219890283E+000	1.916999951572507E+001
-6.5226686E-001	1.011437928609745E+000	1.918429951536382E+001
-6.5128899E-001	1.010699040270993E+000	1.919859951500257E+001
-6.5027225E-001	1.008031842126870E+000	1.921289951464132E+001
-6.4924943E-001	9.855200101301311E-001	1.922719951428007E+001
-6.4824557E-001	9.660965446576775E-001	1.924139951392135E+001
-6.4724702E-001	9.677368963991024E-001	1.925579951355758E+001
-6.4623976E-001	9.759784419002244E-001	1.926999951319885E+001
-6.4528060E-001	9.673830721479568E-001	1.928429951283761E+001
-6.4419895E-001	9.540599829876246E-001	1.929859951247636E+001
-6.4326346E-001	9.412522691516934E-001	1.931289951211511E+001
-6.4221728E-001	9.544983023758213E-001	1.932719951175386E+001
-6.4123517E-001	9.621294090369097E-001	1.934139951139514E+001
-6.4026242E-001	9.581737274032385E-001	1.935579951103136E+001
-6.3923228E-001	9.314199988390719E-001	1.936999951067264E+001
-6.3827920E-001	9.211955422440035E-001	1.938429951031139E+001
-6.3723892E-001	9.170707040126835E-001	1.939859950995015E+001
-6.3625365E-001	9.200129698245600E-001	1.941289950958890E+001
-6.3524628E-001	9.164247254326874E-001	1.942719950922765E+001
-6.3425761E-001	9.143650079349746E-001	1.944139950886893E+001
-6.3326758E-001	9.137769303197243E-001	1.945579950850515E+001
-6.3228345E-001	9.229411656948887E-001	1.946999950814643E+001
-6.3127565E-001	9.117437282768215E-001	1.948429950778518E+001
-6.3029253E-001	9.043218612738801E-001	1.949859950742393E+001
-6.2925929E-001	8.915308213530064E-001	1.951289950706268E+001
-6.2827361E-001	8.892967355010697E-001	1.952719950670144E+001
-6.2727833E-001	8.956095280639893E-001	1.954139950634271E+001
-6.2622911E-001	8.823373241126955E-001	1.955579950597894E+001
-6.2525982E-001	8.710946964565678E-001	1.956999950562022E+001
-6.2425983E-001	8.637060019211553E-001	1.958429950525897E+001
-6.2325537E-001	8.599263756186701E-001	1.959859950489772E+001
-6.2228370E-001	8.560123092136713E-001	1.961289950453647E+001
-6.2123418E-001	8.547477732402823E-001	1.962719950417522E+001
-6.2027520E-001	8.572491306743686E-001	1.964139950381650E+001
-6.1924207E-001	8.625361570351142E-001	1.965579950345273E+001
-6.1829460E-001	8.678339610196408E-001	1.966999950309400E+001
-6.1728424E-001	8.710640161608660E-001	1.968429950273276E+001
-6.1628485E-001	8.533309866810050E-001	1.969859950237151E+001
-6.1527181E-001	8.462528214527278E-001	1.971289950201026E+001
-6.1430115E-001	8.272173466539248E-001	1.972719950164901E+001
-6.1329967E-001	8.204987902621141E-001	1.974139950129029E+001
-6.1224532E-001	8.263666717248297E-001	1.975579950092651E+001
-6.1127412E-001	8.285422679376424E-001	1.976999950056779E+001
-6.1028987E-001	8.327847256014813E-001	1.978429950020654E+001
-6.0926425E-001	8.465640398062533E-001	1.979859949984530E+001
-6.0825807E-001	8.410420694078020E-001	1.981289949948405E+001
-6.0726959E-001	8.392440342916743E-001	1.982719949912280E+001
-6.0629690E-001	8.408018858948099E-001	1.984139949876408E+001
-6.0522473E-001	8.278907638644659E-001	1.985579949840030E+001
-6.0425919E-001	8.161324202325568E-001	1.986999949804158E+001
-6.0329318E-001	8.106393927708284E-001	1.988429949768033E+001
-6.0226578E-001	8.046315549145238E-001	1.989859949731908E+001
-6.0127103E-001	7.976541937400512E-001	1.991289949695783E+001
-6.0028380E-001	7.902874588083577E-001	1.992719949659659E+001
-5.9929281E-001	8.045289269211935E-001	1.994139949623786E+001
-5.9825301E-001	7.898435040212188E-001	1.995579949587409E+001
-5.9727740E-001	7.865884572141404E-001	1.996999949551537E+001
-5.9628332E-001	7.892134855334190E-001	1.998429949515412E+001
-5.9525049E-001	7.913236019279195E-001	1.999859949479287E+001
-5.9430599E-001	7.836185969794425E-001	2.001289949443162E+001
-5.9328735E-001	7.680957652434373E-001	2.002719949407037E+001
-5.9229451E-001	7.496176598409257E-001	2.004139949371165E+001
-5.9126830E-001	7.313812636033035E-001	2.005579949334788E+001
-5.9029651E-001	7.136352924377807E-001	2.006999949298915E+001
-5.8931369E-001	7.025426820732488E-001	2.008429949262791E+001
-5.8825397E-001	7.103081837849485E-001	2.009859949226666E+001
-5.8725744E-001	7.076153174950151E-001	2.011289949190541E+001
-5.8622116E-001	7.189927268821830E-001	2.012719949154416E+001
-5.8525109E-001	7.390501346380898E-001	2.014139949118544E+001
-5.8424872E-001	7.462768129432078E-001	2.015579949082166E+001
-5.8324379E-001	7.248957788251580E-001	2.016999949046294E+001
-5.8224219E-001	7.328355891343491E-001	2.018429949010169E+001
-5.8129883E-001	7.186105477982601E-001	2.019859948974045E+001
-5.8026201E-001	7.161163442887553E-001	2.021289948937920E+001
-5.7928205E-001	7.193291817384340E-001	2.022719948901795E+001
-5.7828617E-001	7.132412730958699E-001	2.024139948865923E+001
-5.7728612E-001	7.079322085434487E-001	2.025579948829545E+001
-5.7626361E-001	6.979355984585744E-001	2.026999948793673E+001
-5.7523471E-001	6.871139699115592E-001	2.028429948757548E+001
-5.7428342E-001	6.781393771064677E-001	2.029859948721423E+001
-5.7329375E-001	6.739770659508242E-001	2.031289948685298E+001
-5.7227999E-001	6.751898934162455E-001	2.032719948649174E+001
-5.7127440E-001	6.708339503408469E-001	2.034139948613301E+001
-5.7026452E-001	6.548274422190534E-001	2.035579948576924E+001
-5.6928778E-001	6.550273652440737E-001	2.036999948541052E+001
-5.6829995E-001	6.557345845545512E-001	2.038429948504927E+001
-5.6729603E-001	6.666987331991514E-001	2.039859948468802E+001
-5.6629658E-001	6.707441447756430E-001	2.041289948432677E+001
-5.6529284E-001	6.495053977826828E-001	2.042719948396552E+001
-5.6430656E-001	6.329065908236462E-001	2.044139948360680E+001
-5.6326634E-001	6.229009153927709E-001	2.045579948324303E+001
-5.6224436E-001	6.253258125992334E-001	2.046999948288430E+001
-5.6129646E-001	6.156744134373557E-001	2.048429948252306E+001
-5.6025457E-001	6.148675455115136E-001	2.049859948216181E+001
-5.5926740E-001	6.066391315454460E-001	2.051289948180056E+001
-5.5825990E-001	6.177185529013514E-001	2.052719948143931E+001
-5.5728972E-001	6.200911767252073E-001	2.054139948108059E+001
-5.5628169E-001	6.185650650271164E-001	2.055579948071681E+001
-5.5530298E-001	6.213300467061345E-001	2.056999948035809E+001
-5.5428535E-001	6.236818511062898E-001	2.058429947999684E+001
-5.5329418E-001	6.084629269001498E-001	2.059859947963560E+001
-5.5230790E-001	6.067725841600726E-001	2.061289947927435E+001
-5.5130881E-001	6.190171627652798E-001	2.062719947891310E+001
-5.5031478E-001	6.117556555206338E-001	2.064139947855438E+001
-5.4932320E-001	6.142563590644059E-001	2.065579947819060E+001
-5.4830503E-001	6.164778815679419E-001	2.066999947783188E+001
-5.4730111E-001	6.155218178382516E-001	2.068429947747063E+001
-5.4631358E-001	6.117456703116968E-001	2.069859947710938E+001
-5.4529315E-001	6.163226962925344E-001	2.071289947674813E+001
-5.4426980E-001	6.189558584931838E-001	2.072719947638689E+001
-5.4330450E-001	6.138705445870674E-001	2.074139947602816E+001
-5.4231489E-001	6.311125548575856E-001	2.075579947566439E+001
-5.4129547E-001	6.285431675957334E-001	2.076999947530567E+001
-5.4028243E-001	6.366461188842827E-001	2.078429947494442E+001
-5.3930801E-001	6.383427323623128E-001	2.079859947458317E+001
-5.3828228E-001	6.412757223901853E-001	2.081289947422192E+001
-5.3728443E-001	6.276110314235348E-001	2.082719947386067E+001
-5.3626341E-001	6.419906957404855E-001	2.084139947350195E+001
-5.3523058E-001	6.339689829813615E-001	2.085579947313818E+001
-5.3426778E-001	6.343947304291433E-001	2.086999947277945E+001
-5.3325212E-001	6.289040722549899E-001	2.088429947241821E+001
-5.3224951E-001	6.208048173405878E-001	2.089859947205696E+001
-5.3128743E-001	6.291360414610843E-001	2.091289947169571E+001
-5.3024912E-001	6.089603422345453E-001	2.092719947133446E+001
-5.2931875E-001	6.233144719032389E-001	2.094139947097574E+001
-5.2827144E-001	6.211297826642586E-001	2.095579947061196E+001
-5.2729350E-001	6.294473167314791E-001	2.096999947025324E+001
-5.2631694E-001	6.355463524850489E-001	2.098429946989199E+001
-5.2526951E-001	6.111865972270625E-001	2.099859946953075E+001
-5.2430654E-001	6.073177662391487E-001	2.101289946916950E+001
-5.2329844E-001	6.302375410038312E-001	2.102719946880825E+001
-5.2228349E-001	6.239358528934318E-001	2.104139946844953E+001
-5.2127922E-001	6.113773458807072E-001	2.105579946808575E+001
-5.2031982E-001	5.955615774097769E-001	2.106999946772703E+001
-5.1927799E-001	5.909432129385177E-001	2.108429946736578E+001
-5.1827574E-001	5.818793162931495E-001	2.109859946700453E+001
-5.1731831E-001	5.782101688858790E-001	2.111289946664328E+001
-5.1630574E-001	5.793903420441593E-001	2.112719946628204E+001
-5.1530802E-001	5.575080991256982E-001	2.114139946592331E+001
-5.1431918E-001	5.521724778324506E-001	2.115579946555954E+001
-5.1331681E-001	5.457326674610767E-001	2.116999946520082E+001
-5.1233059E-001	5.423818337372852E-001	2.118429946483957E+001
-5.1127040E-001	5.390015263037639E-001	2.119859946447832E+001
-5.1023036E-001	5.492998499423276E-001	2.121289946411707E+001
-5.0924200E-001	5.356554493919239E-001	2.122719946375582E+001
-5.0822425E-001	5.363919072018097E-001	2.124139946339710E+001
-5.0723368E-001	5.250158771887081E-001	2.125579946303333E+001
-5.0623244E-001	5.287453051569173E-001	2.126999946267460E+001
-5.0526059E-001	5.323487949844150E-001	2.128429946231336E+001
-5.0422710E-001	5.390726383605697E-001	2.129859946195211E+001
-5.0324023E-001	5.403019611604289E-001	2.131289946159086E+001
-5.0225466E-001	5.518605810648296E-001	2.132719946122961E+001
-5.0128633E-001	5.594393057205389E-001	2.134139946087089E+001
-5.0026727E-001	5.326166237306689E-001	2.135579946050711E+001
-4.9923843E-001	5.306599753675996E-001	2.136999946014839E+001
-4.9828187E-001	5.222146675348860E-001	2.138429945978714E+001
-4.9723530E-001	5.153649300118559E-001	2.139859945942590E+001
-4.9623361E-001	5.062314156920467E-001	2.141289945906465E+001
-4.9525157E-001	5.241907832120589E-001	2.142719945870340E+001
-4.9430808E-001	5.322920600495626E-001	2.144139945834468E+001
-4.9329647E-001	5.153393126553660E-001	2.145579945798090E+001
-4.9225336E-001	5.208391569006694E-001	2.146999945762218E+001
-4.9125385E-001	5.343533310967583E-001	2.148429945726093E+001
-4.9027440E-001	5.407160642935196E-001	2.149859945689968E+001
-4.8926479E-001	5.254649392472421E-001	2.151289945653843E+001
-4.8823759E-001	5.410373276948421E-001	2.152719945617719E+001
-4.8724681E-001	5.385882124319323E-001	2.154139945581846E+001
-4.8620504E-001	5.440137509940541E-001	2.155579945545469E+001
-4.8524395E-001	5.335736102206265E-001	2.156999945509597E+001
-4.8424181E-001	5.347524846283109E-001	2.158429945473472E+001
-4.8321217E-001	5.094297025643764E-001	2.159859945437347E+001
-4.8220330E-001	5.141737336006296E-001	2.161289945401222E+001
-4.8121631E-001	5.267173509904133E-001	2.162719945365097E+001
-4.8020470E-001	5.048402121271156E-001	2.164139945329225E+001
-4.7921056E-001	4.977183504670393E-001	2.165579945292848E+001
-4.7825825E-001	5.166713559689622E-001	2.166999945256975E+001
-4.7723085E-001	5.248199269294975E-001	2.168429945220851E+001
-4.7623721E-001	5.212140648776162E-001	2.169859945184726E+001
-4.7524092E-001	5.101674689099376E-001	2.171289945148601E+001
-4.7421619E-001	5.083305783336982E-001	2.172719945112476E+001
-4.7326824E-001	5.092651751377462E-001	2.174139945076604E+001
-4.7225302E-001	5.221538671515482E-001	2.175579945040226E+001
-4.7126198E-001	5.118929754001627E-001	2.176999945004354E+001
-4.7025222E-001	5.144740792039144E-001	2.178429944968229E+001
-4.6924886E-001	5.101734417403354E-001	2.179859944932105E+001
-4.6825597E-001	4.925642511759634E-001	2.181289944895980E+001
-4.6729511E-001	4.772526142672486E-001	2.182719944859855E+001
-4.6627006E-001	4.730567118992148E-001	2.184139944823983E+001
-4.6525425E-001	4.829483412080053E-001	2.185579944787605E+001
-4.6428305E-001	4.776598716828939E-001	2.186999944751733E+001
-4.6331522E-001	4.828238920499661E-001	2.188429944715608E+001
-4.6227032E-001	4.854634655445511E-001	2.189859944679483E+001
-4.6129221E-001	5.071555946881963E-001	2.191289944643358E+001
-4.6026149E-001	5.034099324426906E-001	2.192719944607234E+001
-4.5926541E-001	5.023653520693188E-001	2.194139944571361E+001
-4.5827016E-001	5.072507955822694E-001	2.195579944534984E+001
-4.5722064E-001	5.076427014064393E-001	2.196999944499112E+001
-4.5624077E-001	5.202271991886969E-001	2.198429944462987E+001
-4.5524007E-001	5.329190972503639E-001	2.199859944426862E+001
-4.5425424E-001	5.337433748138256E-001	2.201289944390737E+001
-4.5327869E-001	5.242942112333067E-001	2.202719944354612E+001
-4.5229223E-001	5.305478734953795E-001	2.204139944318740E+001
-4.5127684E-001	5.356459778098124E-001	2.205579944282363E+001
-4.5027164E-001	5.314035987466934E-001	2.206999944246490E+001
-4.4923857E-001	5.399624646259227E-001	2.208429944210366E+001
-4.4823581E-001	5.449039932112402E-001	2.209859944174241E+001
-4.4725159E-001	5.496913676388946E-001	2.211289944138116E+001
-4.4624388E-001	5.370895787612744E-001	2.212719944101991E+001
-4.4524014E-001	5.268713378876173E-001	2.214139944066119E+001
-4.4429696E-001	5.191859181407672E-001	2.215579944029741E+001
-4.4325790E-001	4.793861227881305E-001	2.216999943993869E+001
-4.4227797E-001	4.813778588906512E-001	2.218429943957744E+001
-4.4129431E-001	4.927218282052004E-001	2.219859943921620E+001
-4.4029933E-001	4.839710773231518E-001	2.221289943885495E+001
-4.3930385E-001	4.724889001663550E-001	2.222719943849370E+001
-4.3827763E-001	4.621186594934747E-001	2.224139943813498E+001
-4.3728489E-001	4.757841658332218E-001	2.225579943777120E+001
-4.3631235E-001	4.810208202907234E-001	2.226999943741248E+001
-4.3529457E-001	4.759095886005817E-001	2.228429943705123E+001
-4.3427074E-001	4.667806907018546E-001	2.229859943668998E+001
-4.3324459E-001	4.792742482816377E-001	2.231289943632873E+001
-4.3225744E-001	4.950278520409483E-001	2.232719943596749E+001
-4.3127790E-001	4.910920231025859E-001	2.234139943560876E+001
-4.3025136E-001	4.893295183622599E-001	2.235579943524499E+001
-4.2923045E-001	4.743497249680031E-001	2.236999943488627E+001
-4.2827183E-001	4.930391367954696E-001	2.238429943452502E+001
-4.2722625E-001	4.932258955911197E-001	2.239859943416377E+001
-4.2621773E-001	4.925902701078506E-001	2.241289943380252E+001
-4.2527774E-001	4.994684661311730E-001	2.242719943344127E+001
-4.2426378E-001	4.828080935570860E-001	2.244149943308003E+001
-4.2327011E-001	4.832436323728562E-001	2.245579943271878E+001
-4.2225531E-001	4.822214130981575E-001	2.246999943236005E+001
-4.2121357E-001	4.957373179252800E-001	2.248439943199628E+001
-4.2027372E-001	5.019149719543443E-001	2.249859943163756E+001
-4.1929209E-001	5.242242909609702E-001	2.251289943127631E+001
-4.1828486E-001	5.216424404255431E-001	2.252719943091506E+001
-4.1724843E-001	5.318003458448519E-001	2.254149943055381E+001
-4.1629755E-001	5.513085545826470E-001	2.255579943019256E+001
-4.1531140E-001	5.483010291912542E-001	2.256999942983384E+001
-4.1430429E-001	5.139795706927561E-001	2.258439942947007E+001
-4.1325969E-001	5.199437250048504E-001	2.259859942911135E+001
-4.1233397E-001	5.211469950751422E-001	2.261289942875010E+001
-4.1131082E-001	5.066168131476534E-001	2.262719942838885E+001
-4.1030824E-001	5.151895123581660E-001	2.264149942802760E+001
-4.0928558E-001	5.238530796147334E-001	2.265579942766635E+001
-4.0827128E-001	5.377105329437946E-001	2.266999942730763E+001
-4.0726313E-001	5.555505311009874E-001	2.268439942694386E+001
-4.0630084E-001	6.042131148351482E-001	2.269859942658513E+001
-4.0526173E-001	6.252187022318445E-001	2.271289942622388E+001
-4.0428668E-001	5.910191017343713E-001	2.272719942586264E+001
-4.0325683E-001	6.044290179458391E-001	2.274149942550139E+001
-4.0224832E-001	6.158314043932478E-001	2.275579942514014E+001
-4.0164250E-001	6.392448594172784E-001	2.276499942490773E+001
-4.0149924E-001	6.245186328887939E-001	2.276779942483699E+001